11.0000	2139.0000
11.0092	2107.0000
11.0184	2089.0000
11.0277	2108.0000
11.0369	2110.0000
11.0461	2111.0000
11.0553	2136.0000
11.0646	2091.0000
11.0738	2097.0000
11.0830	2083.0000
11.0922	2117.0000
11.1014	2096.0000
11.1107	2024.0000
11.1199	2089.0000
11.1291	2070.0000
11.1383	1976.0000
11.1476	2066.0000
11.1568	2023.0000
11.1660	1986.0000
11.1752	2013.0000
11.1845	2064.0000
11.1937	1984.0000
11.2029	1921.0000
11.2121	1949.0000
11.2213	1906.0000
11.2306	1965.0000
11.2398	1956.0000
11.2490	2001.0000
11.2582	1977.0000
11.2675	1950.0000
11.2767	1885.0000
11.2859	1900.0000
11.2951	1938.0000
11.3043	2044.0000
11.3136	1862.0000
11.3228	1900.0000
11.3320	1885.0000
11.3412	1838.0000
11.3505	1934.0000
11.3597	1906.0000
11.3689	1929.0000
11.3781	1915.0000
11.3874	1862.0000
11.3966	1823.0000
11.4058	1829.0000
11.4150	1799.0000
11.4242	1876.0000
11.4335	1877.0000
11.4427	1911.0000
11.4519	1819.0000
11.4611	1855.0000
11.4704	1826.0000
11.4796	1746.0000
11.4888	1836.0000
11.4980	1880.0000
11.5072	1848.0000
11.5165	1880.0000
11.5257	1743.0000
11.5349	1789.0000
11.5441	1731.0000
11.5534	1795.0000
11.5626	1874.0000
11.5718	1781.0000
11.5810	1882.0000
11.5902	1798.0000
11.5995	1759.0000
11.6087	1768.0000
11.6179	1766.0000
11.6271	1780.0000
11.6364	1758.0000
11.6456	1699.0000
11.6548	1760.0000
11.6640	1686.0000
11.6733	1776.0000
11.6825	1651.0000
11.6917	1758.0000
11.7009	1670.0000
11.7101	1602.0000
11.7194	1744.0000
11.7286	1673.0000
11.7378	1713.0000
11.7470	1686.0000
11.7563	1671.0000
11.7655	1676.0000
11.7747	1693.0000
11.7839	1650.0000
11.7931	1639.0000
11.8024	1682.0000
11.8116	1594.0000
11.8208	1614.0000
11.8300	1611.0000
11.8393	1578.0000
11.8485	1688.0000
11.8577	1637.0000
11.8669	1538.0000
11.8762	1594.0000
11.8854	1652.0000
11.8946	1612.0000
11.9038	1598.0000
11.9130	1560.0000
11.9223	1550.0000
11.9315	1532.0000
11.9407	1511.0000
11.9499	1577.0000
11.9592	1560.0000
11.9684	1607.0000
11.9776	1577.0000
11.9868	1622.0000
11.9960	1645.0000
12.0053	1532.0000
12.0145	1509.0000
12.0237	1571.0000
12.0329	1542.0000
12.0422	1574.0000
12.0514	1526.0000
12.0606	1480.0000
12.0698	1619.0000
12.0791	1577.0000
12.0883	1511.0000
12.0975	1565.0000
12.1067	1523.0000
12.1159	1503.0000
12.1252	1514.0000
12.1344	1470.0000
12.1436	1523.0000
12.1528	1511.0000
12.1621	1540.0000
12.1713	1517.0000
12.1805	1548.0000
12.1897	1450.0000
12.1989	1381.0000
12.2082	1517.0000
12.2174	1530.0000
12.2266	1461.0000
12.2358	1466.0000
12.2451	1486.0000
12.2543	1452.0000
12.2635	1451.0000
12.2727	1435.0000
12.2819	1388.0000
12.2912	1426.0000
12.3004	1437.0000
12.3096	1410.0000
12.3188	1502.0000
12.3281	1456.0000
12.3373	1454.0000
12.3465	1371.0000
12.3557	1349.0000
12.3650	1438.0000
12.3742	1354.0000
12.3834	1335.0000
12.3926	1402.0000
12.4018	1395.0000
12.4111	1408.0000
12.4203	1366.0000
12.4295	1385.0000
12.4387	1314.0000
12.4480	1409.0000
12.4572	1367.0000
12.4664	1419.0000
12.4756	1394.0000
12.4848	1381.0000
12.4941	1314.0000
12.5033	1320.0000
12.5125	1335.0000
12.5217	1360.0000
12.5310	1363.0000
12.5402	1402.0000
12.5494	1287.0000
12.5586	1329.0000
12.5679	1337.0000
12.5771	1347.0000
12.5863	1340.0000
12.5955	1375.0000
12.6047	1351.0000
12.6140	1307.0000
12.6232	1290.0000
12.6324	1330.0000
12.6416	1342.0000
12.6509	1285.0000
12.6601	1309.0000
12.6693	1334.0000
12.6785	1355.0000
12.6877	1306.0000
12.6970	1278.0000
12.7062	1317.0000
12.7154	1269.0000
12.7246	1301.0000
12.7339	1249.0000
12.7431	1173.0000
12.7523	1267.0000
12.7615	1290.0000
12.7707	1280.0000
12.7800	1316.0000
12.7892	1247.0000
12.7984	1190.0000
12.8076	1258.0000
12.8169	1221.0000
12.8261	1290.0000
12.8353	1251.0000
12.8445	1229.0000
12.8538	1229.0000
12.8630	1185.0000
12.8722	1258.0000
12.8814	1229.0000
12.8906	1219.0000
12.8999	1252.0000
12.9091	1252.0000
12.9183	1262.0000
12.9275	1224.0000
12.9368	1233.0000
12.9460	1223.0000
12.9552	1180.0000
12.9644	1226.0000
12.9736	1256.0000
12.9829	1202.0000
12.9921	1177.0000
13.0013	1291.0000
13.0105	1201.0000
13.0198	1248.0000
13.0290	1132.0000
13.0382	1160.0000
13.0474	1213.0000
13.0567	1142.0000
13.0659	1146.0000
13.0751	1187.0000
13.0843	1225.0000
13.0935	1191.0000
13.1028	1103.0000
13.1120	1149.0000
13.1212	1166.0000
13.1304	1162.0000
13.1397	1195.0000
13.1489	1185.0000
13.1581	1154.0000
13.1673	1138.0000
13.1765	1173.0000
13.1858	1115.0000
13.1950	1145.0000
13.2042	1155.0000
13.2134	1178.0000
13.2227	1196.0000
13.2319	1144.0000
13.2411	1157.0000
13.2503	1137.0000
13.2596	1154.0000
13.2688	1169.0000
13.2780	1123.0000
13.2872	1047.0000
13.2964	1111.0000
13.3057	1127.0000
13.3149	1094.0000
13.3241	1165.0000
13.3333	1100.0000
13.3426	1148.0000
13.3518	1090.0000
13.3610	1071.0000
13.3702	1160.0000
13.3794	1104.0000
13.3887	1074.0000
13.3979	1076.0000
13.4071	1100.0000
13.4163	1102.0000
13.4256	1060.0000
13.4348	1126.0000
13.4440	1116.0000
13.4532	1056.0000
13.4624	1118.0000
13.4717	1075.0000
13.4809	1085.0000
13.4901	1101.0000
13.4993	1031.0000
13.5086	1059.0000
13.5178	1088.0000
13.5270	1088.0000
13.5362	1109.0000
13.5455	1101.0000
13.5547	1062.0000
13.5639	1106.0000
13.5731	1099.0000
13.5823	1022.0000
13.5916	1044.0000
13.6008	1064.0000
13.6100	1069.0000
13.6192	1061.0000
13.6285	982.0000
13.6377	1057.0000
13.6469	1078.0000
13.6561	1057.0000
13.6653	1024.0000
13.6746	1005.0000
13.6838	1036.0000
13.6930	1071.0000
13.7022	1075.0000
13.7115	1051.0000
13.7207	966.0000
13.7299	1048.0000
13.7391	1009.0000
13.7484	1020.0000
13.7576	1010.0000
13.7668	983.0000
13.7760	1008.0000
13.7852	1028.0000
13.7945	1068.0000
13.8037	995.0000
13.8129	979.0000
13.8221	992.0000
13.8314	1024.0000
13.8406	1021.0000
13.8498	1063.0000
13.8590	1081.0000
13.8682	982.0000
13.8775	1042.0000
13.8867	1008.0000
13.8959	1011.0000
13.9051	972.0000
13.9144	986.0000
13.9236	1024.0000
13.9328	960.0000
13.9420	1023.0000
13.9512	1025.0000
13.9605	985.0000
13.9697	996.0000
13.9789	995.0000
13.9881	995.0000
13.9974	1041.0000
14.0066	976.0000
14.0158	942.0000
14.0250	952.0000
14.0343	1002.0000
14.0435	1015.0000
14.0527	1008.0000
14.0619	955.0000
14.0711	1017.0000
14.0804	954.0000
14.0896	1004.0000
14.0988	1029.0000
14.1080	974.0000
14.1173	967.0000
14.1265	955.0000
14.1357	981.0000
14.1449	952.0000
14.1541	976.0000
14.1634	927.0000
14.1726	937.0000
14.1818	968.0000
14.1910	959.0000
14.2003	962.0000
14.2095	976.0000
14.2187	886.0000
14.2279	961.0000
14.2372	900.0000
14.2464	916.0000
14.2556	981.0000
14.2648	989.0000
14.2740	940.0000
14.2833	969.0000
14.2925	986.0000
14.3017	972.0000
14.3109	976.0000
14.3202	970.0000
14.3294	980.0000
14.3386	929.0000
14.3478	937.0000
14.3570	946.0000
14.3663	914.0000
14.3755	926.0000
14.3847	906.0000
14.3939	913.0000
14.4032	891.0000
14.4124	935.0000
14.4216	903.0000
14.4308	861.0000
14.4401	867.0000
14.4493	926.0000
14.4585	932.0000
14.4677	905.0000
14.4769	885.0000
14.4862	917.0000
14.4954	945.0000
14.5046	943.0000
14.5138	902.0000
14.5231	879.0000
14.5323	928.0000
14.5415	940.0000
14.5507	845.0000
14.5599	919.0000
14.5692	941.0000
14.5784	906.0000
14.5876	889.0000
14.5968	883.0000
14.6061	914.0000
14.6153	906.0000
14.6245	957.0000
14.6337	897.0000
14.6429	865.0000
14.6522	885.0000
14.6614	918.0000
14.6706	910.0000
14.6798	875.0000
14.6891	904.0000
14.6983	901.0000
14.7075	897.0000
14.7167	886.0000
14.7260	890.0000
14.7352	874.0000
14.7444	1016.0000
14.7536	924.0000
14.7628	840.0000
14.7721	867.0000
14.7813	858.0000
14.7905	963.0000
14.7997	856.0000
14.8090	860.0000
14.8182	889.0000
14.8274	901.0000
14.8366	913.0000
14.8458	874.0000
14.8551	894.0000
14.8643	895.0000
14.8735	882.0000
14.8827	850.0000
14.8920	901.0000
14.9012	915.0000
14.9104	855.0000
14.9196	870.0000
14.9289	916.0000
14.9381	853.0000
14.9473	839.0000
14.9565	893.0000
14.9657	842.0000
14.9750	866.0000
14.9842	863.0000
14.9934	871.0000
15.0026	888.0000
15.0119	850.0000
15.0211	824.0000
15.0303	893.0000
15.0395	823.0000
15.0487	808.0000
15.0580	872.0000
15.0672	827.0000
15.0764	840.0000
15.0856	872.0000
15.0949	817.0000
15.1041	850.0000
15.1133	872.0000
15.1225	877.0000
15.1317	834.0000
15.1410	849.0000
15.1502	814.0000
15.1594	832.0000
15.1686	831.0000
15.1779	831.0000
15.1871	861.0000
15.1963	861.0000
15.2055	807.0000
15.2148	819.0000
15.2240	836.0000
15.2332	810.0000
15.2424	864.0000
15.2516	810.0000
15.2609	809.0000
15.2701	809.0000
15.2793	852.0000
15.2885	845.0000
15.2978	830.0000
15.3070	831.0000
15.3162	791.0000
15.3254	814.0000
15.3346	826.0000
15.3439	814.0000
15.3531	744.0000
15.3623	822.0000
15.3715	845.0000
15.3808	745.0000
15.3900	785.0000
15.3992	806.0000
15.4084	815.0000
15.4177	841.0000
15.4269	814.0000
15.4361	785.0000
15.4453	785.0000
15.4545	858.0000
15.4638	795.0000
15.4730	864.0000
15.4822	803.0000
15.4914	816.0000
15.5007	832.0000
15.5099	748.0000
15.5191	771.0000
15.5283	786.0000
15.5375	803.0000
15.5468	788.0000
15.5560	814.0000
15.5652	758.0000
15.5744	826.0000
15.5837	781.0000
15.5929	743.0000
15.6021	781.0000
15.6113	815.0000
15.6206	815.0000
15.6298	782.0000
15.6390	794.0000
15.6482	778.0000
15.6574	797.0000
15.6667	838.0000
15.6759	788.0000
15.6851	818.0000
15.6943	831.0000
15.7036	804.0000
15.7128	798.0000
15.7220	751.0000
15.7312	777.0000
15.7404	783.0000
15.7497	788.0000
15.7589	817.0000
15.7681	794.0000
15.7773	783.0000
15.7866	820.0000
15.7958	767.0000
15.8050	756.0000
15.8142	790.0000
15.8234	733.0000
15.8327	813.0000
15.8419	804.0000
15.8511	769.0000
15.8603	731.0000
15.8696	782.0000
15.8788	780.0000
15.8880	741.0000
15.8972	744.0000
15.9065	791.0000
15.9157	779.0000
15.9249	750.0000
15.9341	791.0000
15.9433	722.0000
15.9526	791.0000
15.9618	760.0000
15.9710	757.0000
15.9802	762.0000
15.9895	728.0000
15.9987	777.0000
16.0079	762.0000
16.0171	763.0000
16.0263	693.0000
16.0356	740.0000
16.0448	774.0000
16.0540	740.0000
16.0632	776.0000
16.0725	728.0000
16.0817	762.0000
16.0909	741.0000
16.1001	731.0000
16.1094	752.0000
16.1186	715.0000
16.1278	756.0000
16.1370	751.0000
16.1462	776.0000
16.1555	746.0000
16.1647	726.0000
16.1739	772.0000
16.1831	781.0000
16.1924	786.0000
16.2016	745.0000
16.2108	774.0000
16.2200	743.0000
16.2292	703.0000
16.2385	747.0000
16.2477	760.0000
16.2569	720.0000
16.2661	760.0000
16.2754	767.0000
16.2846	707.0000
16.2938	759.0000
16.3030	749.0000
16.3122	644.0000
16.3215	730.0000
16.3307	727.0000
16.3399	722.0000
16.3491	748.0000
16.3584	760.0000
16.3676	754.0000
16.3768	720.0000
16.3860	727.0000
16.3953	716.0000
16.4045	736.0000
16.4137	706.0000
16.4229	707.0000
16.4321	703.0000
16.4414	737.0000
16.4506	676.0000
16.4598	707.0000
16.4690	662.0000
16.4783	684.0000
16.4875	739.0000
16.4967	726.0000
16.5059	687.0000
16.5151	709.0000
16.5244	723.0000
16.5336	665.0000
16.5428	737.0000
16.5520	735.0000
16.5613	735.0000
16.5705	722.0000
16.5797	711.0000
16.5889	687.0000
16.5982	722.0000
16.6074	703.0000
16.6166	697.0000
16.6258	714.0000
16.6350	676.0000
16.6443	737.0000
16.6535	732.0000
16.6627	689.0000
16.6719	749.0000
16.6812	688.0000
16.6904	723.0000
16.6996	685.0000
16.7088	702.0000
16.7180	695.0000
16.7273	648.0000
16.7365	685.0000
16.7457	668.0000
16.7549	682.0000
16.7642	657.0000
16.7734	645.0000
16.7826	687.0000
16.7918	715.0000
16.8011	711.0000
16.8103	703.0000
16.8195	612.0000
16.8287	697.0000
16.8379	683.0000
16.8472	686.0000
16.8564	687.0000
16.8656	637.0000
16.8748	660.0000
16.8841	677.0000
16.8933	648.0000
16.9025	667.0000
16.9117	665.0000
16.9209	683.0000
16.9302	654.0000
16.9394	620.0000
16.9486	697.0000
16.9578	710.0000
16.9671	699.0000
16.9763	678.0000
16.9855	639.0000
16.9947	629.0000
17.0039	667.0000
17.0132	620.0000
17.0224	652.0000
17.0316	615.0000
17.0408	671.0000
17.0501	660.0000
17.0593	655.0000
17.0685	624.0000
17.0777	659.0000
17.0870	647.0000
17.0962	645.0000
17.1054	699.0000
17.1146	599.0000
17.1238	690.0000
17.1331	686.0000
17.1423	621.0000
17.1515	602.0000
17.1607	622.0000
17.1700	645.0000
17.1792	631.0000
17.1884	601.0000
17.1976	644.0000
17.2068	657.0000
17.2161	644.0000
17.2253	617.0000
17.2345	658.0000
17.2437	644.0000
17.2530	614.0000
17.2622	641.0000
17.2714	654.0000
17.2806	634.0000
17.2899	694.0000
17.2991	636.0000
17.3083	641.0000
17.3175	643.0000
17.3267	619.0000
17.3360	640.0000
17.3452	583.0000
17.3544	637.0000
17.3636	636.0000
17.3729	658.0000
17.3821	643.0000
17.3913	613.0000
17.4005	639.0000
17.4097	586.0000
17.4190	594.0000
17.4282	611.0000
17.4374	566.0000
17.4466	598.0000
17.4559	619.0000
17.4651	636.0000
17.4743	675.0000
17.4835	633.0000
17.4927	601.0000
17.5020	614.0000
17.5112	647.0000
17.5204	615.0000
17.5296	642.0000
17.5389	606.0000
17.5481	614.0000
17.5573	643.0000
17.5665	583.0000
17.5758	618.0000
17.5850	625.0000
17.5942	579.0000
17.6034	618.0000
17.6126	601.0000
17.6219	616.0000
17.6311	603.0000
17.6403	593.0000
17.6495	589.0000
17.6588	592.0000
17.6680	586.0000
17.6772	594.0000
17.6864	613.0000
17.6956	577.0000
17.7049	577.0000
17.7141	590.0000
17.7233	561.0000
17.7325	567.0000
17.7418	575.0000
17.7510	613.0000
17.7602	625.0000
17.7694	556.0000
17.7787	626.0000
17.7879	558.0000
17.7971	577.0000
17.8063	614.0000
17.8155	575.0000
17.8248	587.0000
17.8340	618.0000
17.8432	562.0000
17.8524	625.0000
17.8617	595.0000
17.8709	602.0000
17.8801	601.0000
17.8893	567.0000
17.8985	582.0000
17.9078	594.0000
17.9170	544.0000
17.9262	621.0000
17.9354	549.0000
17.9447	615.0000
17.9539	541.0000
17.9631	586.0000
17.9723	569.0000
17.9816	564.0000
17.9908	564.0000
18.0000	557.0000
18.0092	606.0000
18.0184	608.0000
18.0277	573.0000
18.0369	648.0000
18.0461	598.0000
18.0553	603.0000
18.0646	590.0000
18.0738	558.0000
18.0830	568.0000
18.0922	535.0000
18.1014	582.0000
18.1107	583.0000
18.1199	570.0000
18.1291	589.0000
18.1383	545.0000
18.1476	588.0000
18.1568	542.0000
18.1660	575.0000
18.1752	551.0000
18.1844	586.0000
18.1937	602.0000
18.2029	549.0000
18.2121	593.0000
18.2213	591.0000
18.2306	527.0000
18.2398	529.0000
18.2490	608.0000
18.2582	585.0000
18.2675	572.0000
18.2767	558.0000
18.2859	560.0000
18.2951	576.0000
18.3043	631.0000
18.3136	524.0000
18.3228	568.0000
18.3320	576.0000
18.3412	543.0000
18.3505	579.0000
18.3597	575.0000
18.3689	560.0000
18.3781	568.0000
18.3873	570.0000
18.3966	572.0000
18.4058	533.0000
18.4150	533.0000
18.4242	540.0000
18.4335	576.0000
18.4427	573.0000
18.4519	543.0000
18.4611	597.0000
18.4704	553.0000
18.4796	549.0000
18.4888	543.0000
18.4980	542.0000
18.5072	524.0000
18.5165	581.0000
18.5257	563.0000
18.5349	542.0000
18.5441	542.0000
18.5534	613.0000
18.5626	533.0000
18.5718	553.0000
18.5810	586.0000
18.5902	531.0000
18.5995	568.0000
18.6087	569.0000
18.6179	560.0000
18.6271	572.0000
18.6364	524.0000
18.6456	549.0000
18.6548	577.0000
18.6640	542.0000
18.6732	535.0000
18.6825	567.0000
18.6917	608.0000
18.7009	582.0000
18.7101	579.0000
18.7194	588.0000
18.7286	568.0000
18.7378	581.0000
18.7470	567.0000
18.7563	592.0000
18.7655	568.0000
18.7747	547.0000
18.7839	534.0000
18.7931	580.0000
18.8024	544.0000
18.8116	567.0000
18.8208	535.0000
18.8300	560.0000
18.8393	589.0000
18.8485	570.0000
18.8577	532.0000
18.8669	544.0000
18.8761	590.0000
18.8854	566.0000
18.8946	578.0000
18.9038	592.0000
18.9130	575.0000
18.9223	551.0000
18.9315	546.0000
18.9407	539.0000
18.9499	551.0000
18.9592	585.0000
18.9684	573.0000
18.9776	560.0000
18.9868	570.0000
18.9960	593.0000
19.0053	571.0000
19.0145	543.0000
19.0237	577.0000
19.0329	549.0000
19.0422	545.0000
19.0514	581.0000
19.0606	553.0000
19.0698	574.0000
19.0790	555.0000
19.0883	526.0000
19.0975	554.0000
19.1067	622.0000
19.1159	601.0000
19.1252	599.0000
19.1344	581.0000
19.1436	586.0000
19.1528	534.0000
19.1621	578.0000
19.1713	554.0000
19.1805	565.0000
19.1897	586.0000
19.1989	597.0000
19.2082	562.0000
19.2174	580.0000
19.2266	594.0000
19.2358	580.0000
19.2451	589.0000
19.2543	590.0000
19.2635	571.0000
19.2727	601.0000
19.2819	565.0000
19.2912	541.0000
19.3004	574.0000
19.3096	538.0000
19.3188	603.0000
19.3281	545.0000
19.3373	546.0000
19.3465	582.0000
19.3557	568.0000
19.3649	587.0000
19.3742	546.0000
19.3834	577.0000
19.3926	581.0000
19.4018	547.0000
19.4111	554.0000
19.4203	560.0000
19.4295	568.0000
19.4387	554.0000
19.4480	614.0000
19.4572	557.0000
19.4664	577.0000
19.4756	561.0000
19.4848	538.0000
19.4941	540.0000
19.5033	562.0000
19.5125	593.0000
19.5217	581.0000
19.5310	565.0000
19.5402	608.0000
19.5494	574.0000
19.5586	556.0000
19.5678	591.0000
19.5771	562.0000
19.5863	586.0000
19.5955	561.0000
19.6047	570.0000
19.6140	574.0000
19.6232	575.0000
19.6324	560.0000
19.6416	567.0000
19.6509	549.0000
19.6601	558.0000
19.6693	545.0000
19.6785	597.0000
19.6877	572.0000
19.6970	563.0000
19.7062	580.0000
19.7154	566.0000
19.7246	547.0000
19.7339	579.0000
19.7431	552.0000
19.7523	597.0000
19.7615	572.0000
19.7707	582.0000
19.7800	582.0000
19.7892	602.0000
19.7984	557.0000
19.8076	590.0000
19.8169	575.0000
19.8261	549.0000
19.8353	557.0000
19.8445	600.0000
19.8537	527.0000
19.8630	565.0000
19.8722	579.0000
19.8814	579.0000
19.8906	606.0000
19.8999	546.0000
19.9091	569.0000
19.9183	599.0000
19.9275	547.0000
19.9368	593.0000
19.9460	525.0000
19.9552	531.0000
19.9644	583.0000
19.9736	586.0000
19.9829	578.0000
19.9921	574.0000
20.0013	556.0000
20.0105	604.0000
20.0198	594.0000
20.0290	553.0000
20.0382	555.0000
20.0474	606.0000
20.0566	600.0000
20.0659	539.0000
20.0751	602.0000
20.0843	571.0000
20.0935	558.0000
20.1028	535.0000
20.1120	567.0000
20.1212	622.0000
20.1304	586.0000
20.1397	578.0000
20.1489	592.0000
20.1581	610.0000
20.1673	577.0000
20.1765	595.0000
20.1858	606.0000
20.1950	575.0000
20.2042	538.0000
20.2134	532.0000
20.2227	556.0000
20.2319	570.0000
20.2411	587.0000
20.2503	559.0000
20.2595	588.0000
20.2688	565.0000
20.2780	573.0000
20.2872	589.0000
20.2964	596.0000
20.3057	535.0000
20.3149	552.0000
20.3241	577.0000
20.3333	594.0000
20.3426	525.0000
20.3518	541.0000
20.3610	568.0000
20.3702	579.0000
20.3794	609.0000
20.3887	507.0000
20.3979	572.0000
20.4071	567.0000
20.4163	580.0000
20.4256	548.0000
20.4348	571.0000
20.4440	575.0000
20.4532	595.0000
20.4624	574.0000
20.4717	577.0000
20.4809	544.0000
20.4901	587.0000
20.4993	593.0000
20.5086	603.0000
20.5178	547.0000
20.5270	592.0000
20.5362	547.0000
20.5454	557.0000
20.5547	569.0000
20.5639	546.0000
20.5731	575.0000
20.5823	542.0000
20.5916	592.0000
20.6008	576.0000
20.6100	571.0000
20.6192	584.0000
20.6285	536.0000
20.6377	570.0000
20.6469	562.0000
20.6561	589.0000
20.6653	566.0000
20.6746	512.0000
20.6838	570.0000
20.6930	572.0000
20.7022	556.0000
20.7115	570.0000
20.7207	551.0000
20.7299	612.0000
20.7391	580.0000
20.7483	544.0000
20.7576	551.0000
20.7668	554.0000
20.7760	556.0000
20.7852	555.0000
20.7945	575.0000
20.8037	564.0000
20.8129	579.0000
20.8221	557.0000
20.8314	543.0000
20.8406	559.0000
20.8498	545.0000
20.8590	543.0000
20.8682	565.0000
20.8775	543.0000
20.8867	599.0000
20.8959	555.0000
20.9051	583.0000
20.9144	609.0000
20.9236	550.0000
20.9328	583.0000
20.9420	570.0000
20.9512	566.0000
20.9605	543.0000
20.9697	603.0000
20.9789	586.0000
20.9881	564.0000
20.9974	545.0000
21.0066	566.0000
21.0158	536.0000
21.0250	568.0000
21.0342	614.0000
21.0435	580.0000
21.0527	529.0000
21.0619	568.0000
21.0711	602.0000
21.0804	588.0000
21.0896	507.0000
21.0988	550.0000
21.1080	595.0000
21.1173	526.0000
21.1265	575.0000
21.1357	566.0000
21.1449	531.0000
21.1541	531.0000
21.1634	580.0000
21.1726	585.0000
21.1818	511.0000
21.1910	494.0000
21.2003	578.0000
21.2095	543.0000
21.2187	535.0000
21.2279	559.0000
21.2371	537.0000
21.2464	553.0000
21.2556	578.0000
21.2648	541.0000
21.2740	553.0000
21.2833	582.0000
21.2925	578.0000
21.3017	581.0000
21.3109	570.0000
21.3202	516.0000
21.3294	528.0000
21.3386	558.0000
21.3478	568.0000
21.3570	552.0000
21.3663	563.0000
21.3755	611.0000
21.3847	542.0000
21.3939	599.0000
21.4032	539.0000
21.4124	535.0000
21.4216	586.0000
21.4308	542.0000
21.4400	601.0000
21.4493	573.0000
21.4585	604.0000
21.4677	538.0000
21.4769	597.0000
21.4862	563.0000
21.4954	586.0000
21.5046	542.0000
21.5138	517.0000
21.5231	578.0000
21.5323	584.0000
21.5415	548.0000
21.5507	567.0000
21.5599	552.0000
21.5692	574.0000
21.5784	584.0000
21.5876	562.0000
21.5968	548.0000
21.6061	588.0000
21.6153	533.0000
21.6245	581.0000
21.6337	571.0000
21.6429	493.0000
21.6522	534.0000
21.6614	538.0000
21.6706	581.0000
21.6798	555.0000
21.6891	567.0000
21.6983	542.0000
21.7075	510.0000
21.7167	587.0000
21.7259	595.0000
21.7352	604.0000
21.7444	578.0000
21.7536	586.0000
21.7628	532.0000
21.7721	574.0000
21.7813	545.0000
21.7905	524.0000
21.7997	577.0000
21.8090	550.0000
21.8182	556.0000
21.8274	583.0000
21.8366	601.0000
21.8458	587.0000
21.8551	504.0000
21.8643	543.0000
21.8735	509.0000
21.8827	569.0000
21.8920	595.0000
21.9012	509.0000
21.9104	546.0000
21.9196	527.0000
21.9288	566.0000
21.9381	562.0000
21.9473	537.0000
21.9565	586.0000
21.9657	566.0000
21.9750	576.0000
21.9842	556.0000
21.9934	523.0000
22.0026	579.0000
22.0119	525.0000
22.0211	535.0000
22.0303	558.0000
22.0395	555.0000
22.0487	548.0000
22.0580	522.0000
22.0672	569.0000
22.0764	520.0000
22.0856	561.0000
22.0949	566.0000
22.1041	581.0000
22.1133	556.0000
22.1225	515.0000
22.1317	521.0000
22.1410	606.0000
22.1502	535.0000
22.1594	549.0000
22.1686	573.0000
22.1779	549.0000
22.1871	504.0000
22.1963	546.0000
22.2055	578.0000
22.2147	499.0000
22.2240	575.0000
22.2332	546.0000
22.2424	547.0000
22.2516	533.0000
22.2609	530.0000
22.2701	545.0000
22.2793	541.0000
22.2885	560.0000
22.2978	578.0000
22.3070	524.0000
22.3162	575.0000
22.3254	507.0000
22.3346	529.0000
22.3439	492.0000
22.3531	570.0000
22.3623	538.0000
22.3715	544.0000
22.3808	556.0000
22.3900	552.0000
22.3992	536.0000
22.4084	546.0000
22.4176	508.0000
22.4269	556.0000
22.4361	553.0000
22.4453	536.0000
22.4545	529.0000
22.4638	509.0000
22.4730	546.0000
22.4822	530.0000
22.4914	550.0000
22.5007	545.0000
22.5099	527.0000
22.5191	566.0000
22.5283	547.0000
22.5375	526.0000
22.5468	548.0000
22.5560	541.0000
22.5652	555.0000
22.5744	525.0000
22.5837	564.0000
22.5929	586.0000
22.6021	504.0000
22.6113	523.0000
22.6205	569.0000
22.6298	542.0000
22.6390	531.0000
22.6482	542.0000
22.6574	559.0000
22.6667	565.0000
22.6759	560.0000
22.6851	514.0000
22.6943	575.0000
22.7036	567.0000
22.7128	550.0000
22.7220	523.0000
22.7312	525.0000
22.7404	549.0000
22.7497	571.0000
22.7589	509.0000
22.7681	556.0000
22.7773	557.0000
22.7866	551.0000
22.7958	556.0000
22.8050	560.0000
22.8142	539.0000
22.8234	518.0000
22.8327	555.0000
22.8419	570.0000
22.8511	570.0000
22.8603	531.0000
22.8696	527.0000
22.8788	537.0000
22.8880	540.0000
22.8972	484.0000
22.9064	525.0000
22.9157	527.0000
22.9249	524.0000
22.9341	553.0000
22.9433	547.0000
22.9526	570.0000
22.9618	563.0000
22.9710	558.0000
22.9802	527.0000
22.9895	537.0000
22.9987	534.0000
23.0079	561.0000
23.0171	531.0000
23.0263	540.0000
23.0356	532.0000
23.0448	523.0000
23.0540	582.0000
23.0632	525.0000
23.0725	550.0000
23.0817	573.0000
23.0909	544.0000
23.1001	560.0000
23.1093	513.0000
23.1186	537.0000
23.1278	537.0000
23.1370	568.0000
23.1462	531.0000
23.1555	527.0000
23.1647	616.0000
23.1739	540.0000
23.1831	569.0000
23.1924	545.0000
23.2016	538.0000
23.2108	543.0000
23.2200	540.0000
23.2292	549.0000
23.2385	567.0000
23.2477	554.0000
23.2569	605.0000
23.2661	539.0000
23.2754	559.0000
23.2846	551.0000
23.2938	585.0000
23.3030	569.0000
23.3122	498.0000
23.3215	541.0000
23.3307	558.0000
23.3399	531.0000
23.3491	528.0000
23.3584	554.0000
23.3676	569.0000
23.3768	543.0000
23.3860	561.0000
23.3952	510.0000
23.4045	564.0000
23.4137	535.0000
23.4229	577.0000
23.4321	562.0000
23.4414	552.0000
23.4506	547.0000
23.4598	555.0000
23.4690	543.0000
23.4783	547.0000
23.4875	551.0000
23.4967	543.0000
23.5059	547.0000
23.5151	532.0000
23.5244	535.0000
23.5336	592.0000
23.5428	562.0000
23.5520	495.0000
23.5613	561.0000
23.5705	553.0000
23.5797	551.0000
23.5889	522.0000
23.5981	520.0000
23.6074	571.0000
23.6166	592.0000
23.6258	527.0000
23.6350	550.0000
23.6443	538.0000
23.6535	559.0000
23.6627	525.0000
23.6719	529.0000
23.6812	512.0000
23.6904	538.0000
23.6996	525.0000
23.7088	545.0000
23.7180	549.0000
23.7273	478.0000
23.7365	570.0000
23.7457	542.0000
23.7549	553.0000
23.7642	519.0000
23.7734	556.0000
23.7826	599.0000
23.7918	570.0000
23.8010	535.0000
23.8103	535.0000
23.8195	543.0000
23.8287	570.0000
23.8379	527.0000
23.8472	527.0000
23.8564	589.0000
23.8656	531.0000
23.8748	552.0000
23.8841	528.0000
23.8933	551.0000
23.9025	528.0000
23.9117	547.0000
23.9209	571.0000
23.9302	583.0000
23.9394	583.0000
23.9486	557.0000
23.9578	563.0000
23.9671	559.0000
23.9763	495.0000
23.9855	556.0000
23.9947	479.0000
24.0039	529.0000
24.0132	551.0000
24.0224	511.0000
24.0316	560.0000
24.0408	543.0000
24.0501	527.0000
24.0593	549.0000
24.0685	557.0000
24.0777	545.0000
24.0869	547.0000
24.0962	554.0000
24.1054	589.0000
24.1146	566.0000
24.1238	545.0000
24.1331	537.0000
24.1423	546.0000
24.1515	554.0000
24.1607	567.0000
24.1700	555.0000
24.1792	559.0000
24.1884	525.0000
24.1976	556.0000
24.2068	549.0000
24.2161	519.0000
24.2253	546.0000
24.2345	593.0000
24.2437	566.0000
24.2530	546.0000
24.2622	532.0000
24.2714	571.0000
24.2806	560.0000
24.2898	529.0000
24.2991	536.0000
24.3083	538.0000
24.3175	545.0000
24.3267	532.0000
24.3360	551.0000
24.3452	549.0000
24.3544	532.0000
24.3636	562.0000
24.3729	546.0000
24.3821	542.0000
24.3913	498.0000
24.4005	548.0000
24.4097	566.0000
24.4190	553.0000
24.4282	550.0000
24.4374	517.0000
24.4466	527.0000
24.4559	532.0000
24.4651	514.0000
24.4743	551.0000
24.4835	547.0000
24.4927	571.0000
24.5020	548.0000
24.5112	549.0000
24.5204	519.0000
24.5296	554.0000
24.5389	525.0000
24.5481	540.0000
24.5573	532.0000
24.5665	522.0000
24.5757	579.0000
24.5850	556.0000
24.5942	558.0000
24.6034	535.0000
24.6126	526.0000
24.6219	574.0000
24.6311	532.0000
24.6403	582.0000
24.6495	543.0000
24.6588	592.0000
24.6680	571.0000
24.6772	515.0000
24.6864	539.0000
24.6956	530.0000
24.7049	534.0000
24.7141	574.0000
24.7233	589.0000
24.7325	564.0000
24.7418	530.0000
24.7510	552.0000
24.7602	569.0000
24.7694	556.0000
24.7786	556.0000
24.7879	538.0000
24.7971	580.0000
24.8063	532.0000
24.8155	579.0000
24.8248	525.0000
24.8340	554.0000
24.8432	548.0000
24.8524	535.0000
24.8617	552.0000
24.8709	571.0000
24.8801	537.0000
24.8893	602.0000
24.8985	544.0000
24.9078	573.0000
24.9170	572.0000
24.9262	576.0000
24.9354	563.0000
24.9447	581.0000
24.9539	613.0000
24.9631	538.0000
24.9723	601.0000
24.9815	705.0000
24.9908	776.0000
25.0000	737.0000
25.0092	649.0000
25.0184	628.0000
25.0277	537.0000
25.0369	554.0000
25.0461	571.0000
25.0553	549.0000
25.0646	558.0000
25.0738	542.0000
25.0830	585.0000
25.0922	541.0000
25.1014	550.0000
25.1107	582.0000
25.1199	588.0000
25.1291	651.0000
25.1383	617.0000
25.1476	671.0000
25.1568	680.0000
25.1660	638.0000
25.1752	556.0000
25.1844	545.0000
25.1937	558.0000
25.2029	583.0000
25.2121	573.0000
25.2213	549.0000
25.2306	586.0000
25.2398	537.0000
25.2490	573.0000
25.2582	544.0000
25.2674	545.0000
25.2767	562.0000
25.2859	565.0000
25.2951	580.0000
25.3043	544.0000
25.3136	508.0000
25.3228	573.0000
25.3320	529.0000
25.3412	524.0000
25.3505	551.0000
25.3597	596.0000
25.3689	532.0000
25.3781	556.0000
25.3873	600.0000
25.3966	555.0000
25.4058	500.0000
25.4150	584.0000
25.4242	583.0000
25.4335	559.0000
25.4427	503.0000
25.4519	503.0000
25.4611	537.0000
25.4703	603.0000
25.4796	582.0000
25.4888	531.0000
25.4980	538.0000
25.5072	554.0000
25.5165	556.0000
25.5257	561.0000
25.5349	591.0000
25.5441	519.0000
25.5534	525.0000
25.5626	593.0000
25.5718	587.0000
25.5810	557.0000
25.5902	536.0000
25.5995	573.0000
25.6087	555.0000
25.6179	531.0000
25.6271	574.0000
25.6364	551.0000
25.6456	548.0000
25.6548	565.0000
25.6640	562.0000
25.6732	544.0000
25.6825	590.0000
25.6917	558.0000
25.7009	584.0000
25.7101	575.0000
25.7194	575.0000
25.7286	581.0000
25.7378	565.0000
25.7470	577.0000
25.7562	569.0000
25.7655	594.0000
25.7747	581.0000
25.7839	557.0000
25.7931	594.0000
25.8024	583.0000
25.8116	522.0000
25.8208	543.0000
25.8300	596.0000
25.8393	583.0000
25.8485	581.0000
25.8577	533.0000
25.8669	578.0000
25.8761	556.0000
25.8854	548.0000
25.8946	504.0000
25.9038	566.0000
25.9130	499.0000
25.9223	535.0000
25.9315	600.0000
25.9407	602.0000
25.9499	585.0000
25.9591	618.0000
25.9684	554.0000
25.9776	560.0000
25.9868	533.0000
25.9960	609.0000
26.0053	589.0000
26.0145	566.0000
26.0237	572.0000
26.0329	552.0000
26.0422	531.0000
26.0514	582.0000
26.0606	561.0000
26.0698	556.0000
26.0790	551.0000
26.0883	583.0000
26.0975	539.0000
26.1067	550.0000
26.1159	592.0000
26.1252	549.0000
26.1344	560.0000
26.1436	568.0000
26.1528	553.0000
26.1620	564.0000
26.1713	602.0000
26.1805	581.0000
26.1897	561.0000
26.1989	608.0000
26.2082	583.0000
26.2174	588.0000
26.2266	563.0000
26.2358	584.0000
26.2451	565.0000
26.2543	612.0000
26.2635	621.0000
26.2727	551.0000
26.2819	563.0000
26.2912	540.0000
26.3004	575.0000
26.3096	568.0000
26.3188	589.0000
26.3281	559.0000
26.3373	574.0000
26.3465	594.0000
26.3557	589.0000
26.3649	596.0000
26.3742	589.0000
26.3834	599.0000
26.3926	555.0000
26.4018	582.0000
26.4111	585.0000
26.4203	530.0000
26.4295	596.0000
26.4387	584.0000
26.4479	592.0000
26.4572	591.0000
26.4664	610.0000
26.4756	565.0000
26.4848	590.0000
26.4941	602.0000
26.5033	573.0000
26.5125	619.0000
26.5217	556.0000
26.5310	612.0000
26.5402	578.0000
26.5494	602.0000
26.5586	571.0000
26.5678	612.0000
26.5771	514.0000
26.5863	605.0000
26.5955	560.0000
26.6047	571.0000
26.6140	572.0000
26.6232	589.0000
26.6324	608.0000
26.6416	571.0000
26.6508	610.0000
26.6601	585.0000
26.6693	622.0000
26.6785	568.0000
26.6877	632.0000
26.6970	597.0000
26.7062	520.0000
26.7154	600.0000
26.7246	601.0000
26.7339	592.0000
26.7431	585.0000
26.7523	615.0000
26.7615	570.0000
26.7707	548.0000
26.7800	632.0000
26.7892	592.0000
26.7984	606.0000
26.8076	636.0000
26.8169	572.0000
26.8261	598.0000
26.8353	605.0000
26.8445	601.0000
26.8537	589.0000
26.8630	528.0000
26.8722	583.0000
26.8814	621.0000
26.8906	611.0000
26.8999	608.0000
26.9091	612.0000
26.9183	598.0000
26.9275	609.0000
26.9367	575.0000
26.9460	553.0000
26.9552	504.0000
26.9644	606.0000
26.9736	606.0000
26.9829	596.0000
26.9921	618.0000
27.0013	602.0000
27.0105	597.0000
27.0198	590.0000
27.0290	555.0000
27.0382	591.0000
27.0474	603.0000
27.0566	578.0000
27.0659	646.0000
27.0751	577.0000
27.0843	606.0000
27.0935	578.0000
27.1028	601.0000
27.1120	615.0000
27.1212	584.0000
27.1304	622.0000
27.1396	617.0000
27.1489	602.0000
27.1581	554.0000
27.1673	609.0000
27.1765	599.0000
27.1858	596.0000
27.1950	626.0000
27.2042	565.0000
27.2134	583.0000
27.2227	634.0000
27.2319	590.0000
27.2411	588.0000
27.2503	601.0000
27.2595	593.0000
27.2688	587.0000
27.2780	580.0000
27.2872	588.0000
27.2964	592.0000
27.3057	648.0000
27.3149	595.0000
27.3241	577.0000
27.3333	556.0000
27.3425	635.0000
27.3518	579.0000
27.3610	620.0000
27.3702	636.0000
27.3794	555.0000
27.3887	635.0000
27.3979	623.0000
27.4071	560.0000
27.4163	630.0000
27.4256	628.0000
27.4348	640.0000
27.4440	628.0000
27.4532	590.0000
27.4624	630.0000
27.4717	621.0000
27.4809	602.0000
27.4901	611.0000
27.4993	614.0000
27.5086	628.0000
27.5178	589.0000
27.5270	596.0000
27.5362	585.0000
27.5454	602.0000
27.5547	587.0000
27.5639	635.0000
27.5731	605.0000
27.5823	606.0000
27.5916	628.0000
27.6008	572.0000
27.6100	626.0000
27.6192	635.0000
27.6284	620.0000
27.6377	663.0000
27.6469	616.0000
27.6561	674.0000
27.6653	601.0000
27.6746	633.0000
27.6838	607.0000
27.6930	559.0000
27.7022	620.0000
27.7115	655.0000
27.7207	653.0000
27.7299	593.0000
27.7391	630.0000
27.7483	578.0000
27.7576	600.0000
27.7668	640.0000
27.7760	592.0000
27.7852	600.0000
27.7945	624.0000
27.8037	674.0000
27.8129	646.0000
27.8221	636.0000
27.8313	651.0000
27.8406	634.0000
27.8498	555.0000
27.8590	614.0000
27.8682	609.0000
27.8775	597.0000
27.8867	630.0000
27.8959	623.0000
27.9051	602.0000
27.9144	638.0000
27.9236	632.0000
27.9328	596.0000
27.9420	629.0000
27.9512	640.0000
27.9605	579.0000
27.9697	631.0000
27.9789	620.0000
27.9881	657.0000
27.9974	590.0000
28.0066	646.0000
28.0158	603.0000
28.0250	591.0000
28.0342	607.0000
28.0435	601.0000
28.0527	602.0000
28.0619	630.0000
28.0711	635.0000
28.0804	610.0000
28.0896	642.0000
28.0988	569.0000
28.1080	631.0000
28.1172	585.0000
28.1265	672.0000
28.1357	617.0000
28.1449	595.0000
28.1541	645.0000
28.1634	631.0000
28.1726	629.0000
28.1818	614.0000
28.1910	589.0000
28.2003	639.0000
28.2095	620.0000
28.2187	616.0000
28.2279	618.0000
28.2371	603.0000
28.2464	607.0000
28.2556	636.0000
28.2648	586.0000
28.2740	641.0000
28.2833	613.0000
28.2925	662.0000
28.3017	639.0000
28.3109	610.0000
28.3201	630.0000
28.3294	599.0000
28.3386	630.0000
28.3478	617.0000
28.3570	600.0000
28.3663	652.0000
28.3755	610.0000
28.3847	614.0000
28.3939	647.0000
28.4032	611.0000
28.4124	607.0000
28.4216	617.0000
28.4308	595.0000
28.4400	649.0000
28.4493	661.0000
28.4585	631.0000
28.4677	596.0000
28.4769	606.0000
28.4862	611.0000
28.4954	623.0000
28.5046	627.0000
28.5138	656.0000
28.5230	610.0000
28.5323	617.0000
28.5415	614.0000
28.5507	623.0000
28.5599	606.0000
28.5692	591.0000
28.5784	597.0000
28.5876	608.0000
28.5968	584.0000
28.6061	620.0000
28.6153	638.0000
28.6245	664.0000
28.6337	629.0000
28.6429	605.0000
28.6522	606.0000
28.6614	611.0000
28.6706	660.0000
28.6798	635.0000
28.6891	627.0000
28.6983	644.0000
28.7075	634.0000
28.7167	629.0000
28.7259	606.0000
28.7352	604.0000
28.7444	616.0000
28.7536	609.0000
28.7628	651.0000
28.7721	630.0000
28.7813	649.0000
28.7905	641.0000
28.7997	625.0000
28.8089	644.0000
28.8182	640.0000
28.8274	629.0000
28.8366	637.0000
28.8458	624.0000
28.8551	638.0000
28.8643	593.0000
28.8735	638.0000
28.8827	606.0000
28.8920	626.0000
28.9012	629.0000
28.9104	658.0000
28.9196	649.0000
28.9288	607.0000
28.9381	586.0000
28.9473	637.0000
28.9565	625.0000
28.9657	593.0000
28.9750	634.0000
28.9842	624.0000
28.9934	630.0000
29.0026	637.0000
29.0118	609.0000
29.0211	647.0000
29.0303	624.0000
29.0395	589.0000
29.0487	624.0000
29.0580	587.0000
29.0672	636.0000
29.0764	592.0000
29.0856	601.0000
29.0949	612.0000
29.1041	603.0000
29.1133	630.0000
29.1225	640.0000
29.1317	639.0000
29.1410	606.0000
29.1502	609.0000
29.1594	651.0000
29.1686	640.0000
29.1779	609.0000
29.1871	629.0000
29.1963	646.0000
29.2055	635.0000
29.2147	594.0000
29.2240	600.0000
29.2332	609.0000
29.2424	614.0000
29.2516	650.0000
29.2609	616.0000
29.2701	640.0000
29.2793	630.0000
29.2885	634.0000
29.2977	632.0000
29.3070	586.0000
29.3162	626.0000
29.3254	616.0000
29.3346	644.0000
29.3439	641.0000
29.3531	632.0000
29.3623	654.0000
29.3715	636.0000
29.3808	673.0000
29.3900	607.0000
29.3992	607.0000
29.4084	630.0000
29.4176	656.0000
29.4269	618.0000
29.4361	662.0000
29.4453	676.0000
29.4545	654.0000
29.4638	611.0000
29.4730	659.0000
29.4822	648.0000
29.4914	633.0000
29.5006	636.0000
29.5099	618.0000
29.5191	662.0000
29.5283	645.0000
29.5375	644.0000
29.5468	648.0000
29.5560	625.0000
29.5652	597.0000
29.5744	626.0000
29.5837	626.0000
29.5929	636.0000
29.6021	622.0000
29.6113	620.0000
29.6205	636.0000
29.6298	635.0000
29.6390	630.0000
29.6482	660.0000
29.6574	638.0000
29.6667	610.0000
29.6759	629.0000
29.6851	583.0000
29.6943	641.0000
29.7035	619.0000
29.7128	603.0000
29.7220	611.0000
29.7312	631.0000
29.7404	640.0000
29.7497	599.0000
29.7589	585.0000
29.7681	619.0000
29.7773	618.0000
29.7866	595.0000
29.7958	666.0000
29.8050	622.0000
29.8142	638.0000
29.8234	652.0000
29.8327	603.0000
29.8419	641.0000
29.8511	664.0000
29.8603	628.0000
29.8696	647.0000
29.8788	599.0000
29.8880	622.0000
29.8972	597.0000
29.9064	641.0000
29.9157	629.0000
29.9249	624.0000
29.9341	632.0000
29.9433	672.0000
29.9526	648.0000
29.9618	632.0000
29.9710	648.0000
29.9802	621.0000
29.9894	654.0000
29.9987	623.0000
30.0079	646.0000
30.0171	642.0000
30.0263	620.0000
30.0356	682.0000
30.0448	609.0000
30.0540	552.0000
30.0632	642.0000
30.0725	687.0000
30.0817	636.0000
30.0909	631.0000
30.1001	605.0000
30.1093	666.0000
30.1186	642.0000
30.1278	595.0000
30.1370	606.0000
30.1462	626.0000
30.1555	653.0000
30.1647	654.0000
30.1739	600.0000
30.1831	669.0000
30.1923	635.0000
30.2016	625.0000
30.2108	634.0000
30.2200	634.0000
30.2292	620.0000
30.2385	664.0000
30.2477	719.0000
30.2569	637.0000
30.2661	645.0000
30.2754	643.0000
30.2846	669.0000
30.2938	634.0000
30.3030	625.0000
30.3122	614.0000
30.3215	622.0000
30.3307	606.0000
30.3399	605.0000
30.3491	658.0000
30.3584	649.0000
30.3676	623.0000
30.3768	619.0000
30.3860	635.0000
30.3952	602.0000
30.4045	670.0000
30.4137	641.0000
30.4229	664.0000
30.4321	644.0000
30.4414	656.0000
30.4506	606.0000
30.4598	616.0000
30.4690	591.0000
30.4782	642.0000
30.4875	631.0000
30.4967	618.0000
30.5059	630.0000
30.5151	604.0000
30.5244	577.0000
30.5336	627.0000
30.5428	610.0000
30.5520	621.0000
30.5613	615.0000
30.5705	643.0000
30.5797	599.0000
30.5889	613.0000
30.5981	665.0000
30.6074	615.0000
30.6166	653.0000
30.6258	631.0000
30.6350	613.0000
30.6443	661.0000
30.6535	587.0000
30.6627	671.0000
30.6719	631.0000
30.6811	619.0000
30.6904	679.0000
30.6996	592.0000
30.7088	643.0000
30.7180	625.0000
30.7273	650.0000
30.7365	635.0000
30.7457	625.0000
30.7549	631.0000
30.7642	613.0000
30.7734	674.0000
30.7826	647.0000
30.7918	622.0000
30.8010	613.0000
30.8103	661.0000
30.8195	594.0000
30.8287	609.0000
30.8379	612.0000
30.8472	613.0000
30.8564	589.0000
30.8656	626.0000
30.8748	667.0000
30.8840	633.0000
30.8933	622.0000
30.9025	598.0000
30.9117	628.0000
30.9209	587.0000
30.9302	616.0000
30.9394	647.0000
30.9486	612.0000
30.9578	622.0000
30.9671	602.0000
30.9763	610.0000
30.9855	595.0000
30.9947	628.0000
31.0039	591.0000
31.0132	613.0000
31.0224	626.0000
31.0316	602.0000
31.0408	642.0000
31.0501	617.0000
31.0593	642.0000
31.0685	617.0000
31.0777	616.0000
31.0869	592.0000
31.0962	631.0000
31.1054	628.0000
31.1146	667.0000
31.1238	611.0000
31.1331	587.0000
31.1423	611.0000
31.1515	638.0000
31.1607	657.0000
31.1699	614.0000
31.1792	601.0000
31.1884	618.0000
31.1976	599.0000
31.2068	587.0000
31.2161	646.0000
31.2253	623.0000
31.2345	601.0000
31.2437	626.0000
31.2530	595.0000
31.2622	610.0000
31.2714	596.0000
31.2806	625.0000
31.2898	610.0000
31.2991	636.0000
31.3083	617.0000
31.3175	592.0000
31.3267	605.0000
31.3360	666.0000
31.3452	619.0000
31.3544	618.0000
31.3636	598.0000
31.3728	620.0000
31.3821	623.0000
31.3913	624.0000
31.4005	612.0000
31.4097	606.0000
31.4190	639.0000
31.4282	653.0000
31.4374	616.0000
31.4466	587.0000
31.4559	602.0000
31.4651	632.0000
31.4743	642.0000
31.4835	671.0000
31.4927	648.0000
31.5020	657.0000
31.5112	641.0000
31.5204	617.0000
31.5296	602.0000
31.5389	586.0000
31.5481	682.0000
31.5573	625.0000
31.5665	636.0000
31.5757	683.0000
31.5850	644.0000
31.5942	597.0000
31.6034	596.0000
31.6126	577.0000
31.6219	574.0000
31.6311	625.0000
31.6403	653.0000
31.6495	626.0000
31.6587	612.0000
31.6680	594.0000
31.6772	628.0000
31.6864	589.0000
31.6956	627.0000
31.7049	641.0000
31.7141	581.0000
31.7233	631.0000
31.7325	640.0000
31.7418	619.0000
31.7510	649.0000
31.7602	607.0000
31.7694	650.0000
31.7786	640.0000
31.7879	635.0000
31.7971	627.0000
31.8063	626.0000
31.8155	661.0000
31.8248	575.0000
31.8340	582.0000
31.8432	624.0000
31.8524	641.0000
31.8616	619.0000
31.8709	670.0000
31.8801	564.0000
31.8893	602.0000
31.8985	629.0000
31.9078	677.0000
31.9170	590.0000
31.9262	576.0000
31.9354	603.0000
31.9447	627.0000
31.9539	629.0000
31.9631	605.0000
31.9723	552.0000
31.9815	659.0000
31.9908	625.0000
32.0000	590.0000
32.0092	621.0000
32.0184	629.0000
32.0277	618.0000
32.0369	595.0000
32.0461	630.0000
32.0553	609.0000
32.0645	655.0000
32.0738	621.0000
32.0830	622.0000
32.0922	629.0000
32.1014	657.0000
32.1107	613.0000
32.1199	611.0000
32.1291	640.0000
32.1383	657.0000
32.1476	605.0000
32.1568	636.0000
32.1660	606.0000
32.1752	601.0000
32.1844	589.0000
32.1937	630.0000
32.2029	653.0000
32.2121	655.0000
32.2213	635.0000
32.2306	638.0000
32.2398	596.0000
32.2490	608.0000
32.2582	632.0000
32.2674	624.0000
32.2767	622.0000
32.2859	631.0000
32.2951	621.0000
32.3043	609.0000
32.3136	632.0000
32.3228	635.0000
32.3320	608.0000
32.3412	630.0000
32.3504	609.0000
32.3597	631.0000
32.3689	662.0000
32.3781	617.0000
32.3873	620.0000
32.3966	654.0000
32.4058	643.0000
32.4150	576.0000
32.4242	646.0000
32.4335	646.0000
32.4427	607.0000
32.4519	601.0000
32.4611	649.0000
32.4703	595.0000
32.4796	640.0000
32.4888	606.0000
32.4980	617.0000
32.5072	658.0000
32.5165	619.0000
32.5257	669.0000
32.5349	637.0000
32.5441	616.0000
32.5533	635.0000
32.5626	613.0000
32.5718	582.0000
32.5810	635.0000
32.5902	685.0000
32.5995	636.0000
32.6087	644.0000
32.6179	632.0000
32.6271	634.0000
32.6364	634.0000
32.6456	595.0000
32.6548	601.0000
32.6640	629.0000
32.6732	576.0000
32.6825	673.0000
32.6917	590.0000
32.7009	621.0000
32.7101	598.0000
32.7194	563.0000
32.7286	629.0000
32.7378	616.0000
32.7470	613.0000
32.7562	593.0000
32.7655	611.0000
32.7747	661.0000
32.7839	620.0000
32.7931	669.0000
32.8024	618.0000
32.8116	602.0000
32.8208	642.0000
32.8300	616.0000
32.8392	651.0000
32.8485	625.0000
32.8577	633.0000
32.8669	600.0000
32.8761	629.0000
32.8854	610.0000
32.8946	631.0000
32.9038	631.0000
32.9130	612.0000
32.9223	575.0000
32.9315	594.0000
32.9407	642.0000
32.9499	672.0000
32.9591	634.0000
32.9684	635.0000
32.9776	625.0000
32.9868	631.0000
32.9960	615.0000
33.0053	618.0000
33.0145	640.0000
33.0237	642.0000
33.0329	663.0000
33.0421	676.0000
33.0514	654.0000
33.0606	711.0000
33.0698	772.0000
33.0790	887.0000
33.0883	973.0000
33.0975	1033.0000
33.1067	934.0000
33.1159	777.0000
33.1252	736.0000
33.1344	696.0000
33.1436	655.0000
33.1528	608.0000
33.1620	610.0000
33.1713	622.0000
33.1805	624.0000
33.1897	625.0000
33.1989	641.0000
33.2082	652.0000
33.2174	630.0000
33.2266	657.0000
33.2358	615.0000
33.2450	669.0000
33.2543	631.0000
33.2635	668.0000
33.2727	715.0000
33.2819	774.0000
33.2912	798.0000
33.3004	782.0000
33.3096	770.0000
33.3188	697.0000
33.3281	632.0000
33.3373	649.0000
33.3465	651.0000
33.3557	663.0000
33.3649	623.0000
33.3742	597.0000
33.3834	617.0000
33.3926	650.0000
33.4018	602.0000
33.4111	643.0000
33.4203	637.0000
33.4295	625.0000
33.4387	632.0000
33.4479	612.0000
33.4572	613.0000
33.4664	629.0000
33.4756	609.0000
33.4848	655.0000
33.4941	618.0000
33.5033	632.0000
33.5125	609.0000
33.5217	627.0000
33.5309	658.0000
33.5402	658.0000
33.5494	606.0000
33.5586	620.0000
33.5678	577.0000
33.5771	621.0000
33.5863	610.0000
33.5955	608.0000
33.6047	650.0000
33.6140	579.0000
33.6232	630.0000
33.6324	550.0000
33.6416	678.0000
33.6508	625.0000
33.6601	648.0000
33.6693	612.0000
33.6785	585.0000
33.6877	629.0000
33.6970	600.0000
33.7062	611.0000
33.7154	559.0000
33.7246	637.0000
33.7338	637.0000
33.7431	611.0000
33.7523	617.0000
33.7615	656.0000
33.7707	580.0000
33.7800	670.0000
33.7892	605.0000
33.7984	607.0000
33.8076	639.0000
33.8169	630.0000
33.8261	635.0000
33.8353	605.0000
33.8445	550.0000
33.8537	640.0000
33.8630	585.0000
33.8722	648.0000
33.8814	576.0000
33.8906	570.0000
33.8999	567.0000
33.9091	622.0000
33.9183	602.0000
33.9275	601.0000
33.9367	631.0000
33.9460	610.0000
33.9552	631.0000
33.9644	633.0000
33.9736	614.0000
33.9829	619.0000
33.9921	625.0000
34.0013	604.0000
34.0105	611.0000
34.0197	604.0000
34.0290	592.0000
34.0382	621.0000
34.0474	552.0000
34.0566	600.0000
34.0659	608.0000
34.0751	601.0000
34.0843	578.0000
34.0935	583.0000
34.1028	578.0000
34.1120	574.0000
34.1212	619.0000
34.1304	542.0000
34.1396	601.0000
34.1489	647.0000
34.1581	567.0000
34.1673	609.0000
34.1765	611.0000
34.1858	587.0000
34.1950	627.0000
34.2042	608.0000
34.2134	586.0000
34.2226	612.0000
34.2319	580.0000
34.2411	579.0000
34.2503	584.0000
34.2595	572.0000
34.2688	566.0000
34.2780	624.0000
34.2872	591.0000
34.2964	582.0000
34.3057	564.0000
34.3149	582.0000
34.3241	593.0000
34.3333	596.0000
34.3425	583.0000
34.3518	587.0000
34.3610	568.0000
34.3702	588.0000
34.3794	577.0000
34.3887	547.0000
34.3979	571.0000
34.4071	593.0000
34.4163	570.0000
34.4255	534.0000
34.4348	572.0000
34.4440	606.0000
34.4532	625.0000
34.4624	585.0000
34.4717	570.0000
34.4809	542.0000
34.4901	587.0000
34.4993	532.0000
34.5086	614.0000
34.5178	613.0000
34.5270	602.0000
34.5362	584.0000
34.5454	593.0000
34.5547	577.0000
34.5639	578.0000
34.5731	561.0000
34.5823	555.0000
34.5916	572.0000
34.6008	543.0000
34.6100	568.0000
34.6192	600.0000
34.6284	576.0000
34.6377	550.0000
34.6469	572.0000
34.6561	574.0000
34.6653	609.0000
34.6746	575.0000
34.6838	542.0000
34.6930	582.0000
34.7022	588.0000
34.7114	600.0000
34.7207	576.0000
34.7299	556.0000
34.7391	585.0000
34.7483	534.0000
34.7576	564.0000
34.7668	602.0000
34.7760	591.0000
34.7852	565.0000
34.7945	573.0000
34.8037	553.0000
34.8129	565.0000
34.8221	558.0000
34.8313	593.0000
34.8406	557.0000
34.8498	568.0000
34.8590	558.0000
34.8682	569.0000
34.8775	549.0000
34.8867	565.0000
34.8959	532.0000
34.9051	568.0000
34.9143	525.0000
34.9236	530.0000
34.9328	516.0000
34.9420	529.0000
34.9512	526.0000
34.9605	489.0000
34.9697	515.0000
34.9789	572.0000
34.9881	552.0000
34.9974	534.0000
35.0066	552.0000
35.0158	521.0000
35.0250	564.0000
35.0342	577.0000
35.0435	510.0000
35.0527	506.0000
35.0619	555.0000
35.0711	531.0000
35.0804	540.0000
35.0896	541.0000
35.0988	553.0000
35.1080	521.0000
35.1172	551.0000
35.1265	536.0000
35.1357	548.0000
35.1449	530.0000
35.1541	545.0000
35.1634	562.0000
35.1726	508.0000
35.1818	509.0000
35.1910	518.0000
35.2002	549.0000
35.2095	526.0000
35.2187	523.0000
35.2279	505.0000
35.2371	487.0000
35.2464	515.0000
35.2556	531.0000
35.2648	497.0000
35.2740	509.0000
35.2833	536.0000
35.2925	529.0000
35.3017	544.0000
35.3109	520.0000
35.3201	507.0000
35.3294	548.0000
35.3386	457.0000
35.3478	512.0000
35.3570	511.0000
35.3663	470.0000
35.3755	533.0000
35.3847	535.0000
35.3939	526.0000
35.4031	524.0000
35.4124	499.0000
35.4216	536.0000
35.4308	499.0000
35.4400	484.0000
35.4493	512.0000
35.4585	529.0000
35.4677	491.0000
35.4769	475.0000
35.4862	498.0000
35.4954	541.0000
35.5046	572.0000
35.5138	512.0000
35.5230	550.0000
35.5323	480.0000
35.5415	521.0000
35.5507	498.0000
35.5599	509.0000
35.5692	527.0000
35.5784	527.0000
35.5876	454.0000
35.5968	499.0000
35.6060	462.0000
35.6153	495.0000
35.6245	498.0000
35.6337	440.0000
35.6429	508.0000
35.6522	476.0000
35.6614	445.0000
35.6706	508.0000
35.6798	518.0000
35.6891	494.0000
35.6983	502.0000
35.7075	475.0000
35.7167	487.0000
35.7259	503.0000
35.7352	472.0000
35.7444	476.0000
35.7536	511.0000
35.7628	454.0000
35.7721	488.0000
35.7813	503.0000
35.7905	497.0000
35.7997	487.0000
35.8089	450.0000
35.8182	467.0000
35.8274	480.0000
35.8366	469.0000
35.8458	461.0000
35.8551	482.0000
35.8643	447.0000
35.8735	470.0000
35.8827	462.0000
35.8919	436.0000
35.9012	444.0000
35.9104	478.0000
35.9196	480.0000
35.9288	493.0000
35.9381	478.0000
35.9473	487.0000
35.9565	488.0000
35.9657	447.0000
35.9750	465.0000
35.9842	481.0000
35.9934	466.0000
36.0026	467.0000
36.0118	453.0000
36.0211	447.0000
36.0303	429.0000
36.0395	440.0000
36.0487	470.0000
36.0580	453.0000
36.0672	427.0000
36.0764	429.0000
36.0856	436.0000
36.0948	426.0000
36.1041	457.0000
36.1133	429.0000
36.1225	457.0000
36.1317	418.0000
36.1410	452.0000
36.1502	477.0000
36.1594	405.0000
36.1686	446.0000
36.1779	396.0000
36.1871	450.0000
36.1963	454.0000
36.2055	464.0000
36.2147	458.0000
36.2240	423.0000
36.2332	459.0000
36.2424	425.0000
36.2516	444.0000
36.2609	425.0000
36.2701	408.0000
36.2793	428.0000
36.2885	425.0000
36.2977	439.0000
36.3070	453.0000
36.3162	435.0000
36.3254	436.0000
36.3346	458.0000
36.3439	433.0000
36.3531	435.0000
36.3623	401.0000
36.3715	376.0000
36.3807	413.0000
36.3900	431.0000
36.3992	441.0000
36.4084	430.0000
36.4176	401.0000
36.4269	441.0000
36.4361	429.0000
36.4453	425.0000
36.4545	394.0000
36.4638	425.0000
36.4730	430.0000
36.4822	421.0000
36.4914	430.0000
36.5006	389.0000
36.5099	395.0000
36.5191	432.0000
36.5283	412.0000
36.5375	388.0000
36.5468	429.0000
36.5560	386.0000
36.5652	440.0000
36.5744	375.0000
36.5836	382.0000
36.5929	421.0000
36.6021	411.0000
36.6113	426.0000
36.6205	422.0000
36.6298	379.0000
36.6390	416.0000
36.6482	422.0000
36.6574	401.0000
36.6667	378.0000
36.6759	368.0000
36.6851	425.0000
36.6943	428.0000
36.7035	396.0000
36.7128	396.0000
36.7220	376.0000
36.7312	377.0000
36.7404	396.0000
36.7497	401.0000
36.7589	395.0000
36.7681	403.0000
36.7773	418.0000
36.7865	400.0000
36.7958	393.0000
36.8050	383.0000
36.8142	412.0000
36.8234	361.0000
36.8327	398.0000
36.8419	396.0000
36.8511	377.0000
36.8603	424.0000
36.8696	349.0000
36.8788	384.0000
36.8880	370.0000
36.8972	393.0000
36.9064	384.0000
36.9157	397.0000
36.9249	357.0000
36.9341	389.0000
36.9433	358.0000
36.9526	402.0000
36.9618	372.0000
36.9710	416.0000
36.9802	346.0000
36.9894	373.0000
36.9987	340.0000
37.0079	393.0000
37.0171	402.0000
37.0263	368.0000
37.0356	390.0000
37.0448	391.0000
37.0540	386.0000
37.0632	378.0000
37.0724	389.0000
37.0817	387.0000
37.0909	368.0000
37.1001	358.0000
37.1093	376.0000
37.1186	381.0000
37.1278	373.0000
37.1370	384.0000
37.1462	351.0000
37.1555	358.0000
37.1647	378.0000
37.1739	366.0000
37.1831	379.0000
37.1923	385.0000
37.2016	349.0000
37.2108	389.0000
37.2200	370.0000
37.2292	386.0000
37.2385	391.0000
37.2477	403.0000
37.2569	363.0000
37.2661	370.0000
37.2753	388.0000
37.2846	402.0000
37.2938	407.0000
37.3030	478.0000
37.3122	489.0000
37.3215	564.0000
37.3307	550.0000
37.3399	476.0000
37.3491	401.0000
37.3584	403.0000
37.3676	367.0000
37.3768	382.0000
37.3860	358.0000
37.3952	353.0000
37.4045	377.0000
37.4137	389.0000
37.4229	354.0000
37.4321	325.0000
37.4414	345.0000
37.4506	389.0000
37.4598	389.0000
37.4690	375.0000
37.4782	371.0000
37.4875	348.0000
37.4967	361.0000
37.5059	387.0000
37.5151	403.0000
37.5244	358.0000
37.5336	399.0000
37.5428	442.0000
37.5520	454.0000
37.5612	444.0000
37.5705	425.0000
37.5797	407.0000
37.5889	376.0000
37.5981	385.0000
37.6074	355.0000
37.6166	348.0000
37.6258	390.0000
37.6350	337.0000
37.6443	350.0000
37.6535	355.0000
37.6627	358.0000
37.6719	364.0000
37.6811	347.0000
37.6904	345.0000
37.6996	384.0000
37.7088	336.0000
37.7180	348.0000
37.7273	333.0000
37.7365	333.0000
37.7457	338.0000
37.7549	310.0000
37.7641	307.0000
37.7734	345.0000
37.7826	373.0000
37.7918	381.0000
37.8010	338.0000
37.8103	357.0000
37.8195	362.0000
37.8287	337.0000
37.8379	370.0000
37.8472	346.0000
37.8564	346.0000
37.8656	328.0000
37.8748	348.0000
37.8840	343.0000
37.8933	328.0000
37.9025	359.0000
37.9117	349.0000
37.9209	353.0000
37.9302	355.0000
37.9394	324.0000
37.9486	341.0000
37.9578	366.0000
37.9670	344.0000
37.9763	362.0000
37.9855	345.0000
37.9947	351.0000
38.0039	346.0000
38.0132	339.0000
38.0224	343.0000
38.0316	355.0000
38.0408	334.0000
38.0501	331.0000
38.0593	333.0000
38.0685	367.0000
38.0777	326.0000
38.0869	339.0000
38.0962	314.0000
38.1054	335.0000
38.1146	372.0000
38.1238	321.0000
38.1331	333.0000
38.1423	334.0000
38.1515	321.0000
38.1607	337.0000
38.1699	327.0000
38.1792	347.0000
38.1884	345.0000
38.1976	324.0000
38.2068	327.0000
38.2161	334.0000
38.2253	346.0000
38.2345	337.0000
38.2437	310.0000
38.2529	334.0000
38.2622	321.0000
38.2714	346.0000
38.2806	355.0000
38.2898	326.0000
38.2991	338.0000
38.3083	304.0000
38.3175	333.0000
38.3267	298.0000
38.3360	334.0000
38.3452	355.0000
38.3544	335.0000
38.3636	338.0000
38.3728	331.0000
38.3821	327.0000
38.3913	330.0000
38.4005	311.0000
38.4097	386.0000
38.4190	310.0000
38.4282	329.0000
38.4374	326.0000
38.4466	321.0000
38.4558	348.0000
38.4651	352.0000
38.4743	362.0000
38.4835	300.0000
38.4927	303.0000
38.5020	303.0000
38.5112	320.0000
38.5204	318.0000
38.5296	329.0000
38.5389	312.0000
38.5481	319.0000
38.5573	306.0000
38.5665	344.0000
38.5757	305.0000
38.5850	338.0000
38.5942	333.0000
38.6034	334.0000
38.6126	318.0000
38.6219	328.0000
38.6311	305.0000
38.6403	312.0000
38.6495	337.0000
38.6587	306.0000
38.6680	326.0000
38.6772	320.0000
38.6864	313.0000
38.6956	348.0000
38.7049	363.0000
38.7141	316.0000
38.7233	326.0000
38.7325	340.0000
38.7417	343.0000
38.7510	350.0000
38.7602	316.0000
38.7694	323.0000
38.7786	342.0000
38.7879	330.0000
38.7971	299.0000
38.8063	314.0000
38.8155	316.0000
38.8248	312.0000
38.8340	317.0000
38.8432	330.0000
38.8524	301.0000
38.8616	315.0000
38.8709	325.0000
38.8801	346.0000
38.8893	327.0000
38.8985	312.0000
38.9078	339.0000
38.9170	305.0000
38.9262	336.0000
38.9354	333.0000
38.9446	305.0000
38.9539	311.0000
38.9631	325.0000
38.9723	315.0000
38.9815	318.0000
38.9908	347.0000
39.0000	302.0000
39.0092	284.0000
39.0184	357.0000
39.0277	344.0000
39.0369	315.0000
39.0461	327.0000
39.0553	334.0000
39.0645	287.0000
39.0738	340.0000
39.0830	346.0000
39.0922	348.0000
39.1014	337.0000
39.1107	322.0000
39.1199	308.0000
39.1291	340.0000
39.1383	319.0000
39.1475	320.0000
39.1568	330.0000
39.1660	300.0000
39.1752	318.0000
39.1844	333.0000
39.1937	314.0000
39.2029	328.0000
39.2121	308.0000
39.2213	307.0000
39.2306	305.0000
39.2398	326.0000
39.2490	323.0000
39.2582	350.0000
39.2674	307.0000
39.2767	318.0000
39.2859	317.0000
39.2951	325.0000
39.3043	278.0000
39.3136	323.0000
39.3228	309.0000
39.3320	321.0000
39.3412	296.0000
39.3504	338.0000
39.3597	326.0000
39.3689	297.0000
39.3781	318.0000
39.3873	302.0000
39.3966	301.0000
39.4058	349.0000
39.4150	305.0000
39.4242	339.0000
39.4334	308.0000
39.4427	334.0000
39.4519	337.0000
39.4611	343.0000
39.4703	330.0000
39.4796	309.0000
39.4888	340.0000
39.4980	317.0000
39.5072	325.0000
39.5165	333.0000
39.5257	316.0000
39.5349	324.0000
39.5441	301.0000
39.5533	311.0000
39.5626	298.0000
39.5718	291.0000
39.5810	299.0000
39.5902	322.0000
39.5995	302.0000
39.6087	315.0000
39.6179	327.0000
39.6271	306.0000
39.6363	326.0000
39.6456	340.0000
39.6548	349.0000
39.6640	371.0000
39.6732	339.0000
39.6825	367.0000
39.6917	356.0000
39.7009	344.0000
39.7101	348.0000
39.7194	325.0000
39.7286	352.0000
39.7378	313.0000
39.7470	306.0000
39.7562	314.0000
39.7655	322.0000
39.7747	306.0000
39.7839	324.0000
39.7931	280.0000
39.8024	343.0000
39.8116	332.0000
39.8208	309.0000
39.8300	307.0000
39.8392	317.0000
39.8485	316.0000
39.8577	315.0000
39.8669	303.0000
39.8761	306.0000
39.8854	345.0000
39.8946	318.0000
39.9038	333.0000
39.9130	316.0000
39.9222	348.0000
39.9315	364.0000
39.9407	333.0000
39.9499	314.0000
39.9591	330.0000
39.9684	325.0000
39.9776	306.0000
39.9868	329.0000
39.9960	323.0000
40.0053	323.0000
40.0145	298.0000
40.0237	307.0000
40.0329	292.0000
40.0421	346.0000
40.0514	317.0000
40.0606	327.0000
40.0698	326.0000
40.0790	309.0000
40.0883	324.0000
40.0975	337.0000
40.1067	316.0000
40.1159	326.0000
40.1251	301.0000
40.1344	324.0000
40.1436	285.0000
40.1528	297.0000
40.1620	316.0000
40.1713	330.0000
40.1805	311.0000
40.1897	318.0000
40.1989	301.0000
40.2082	302.0000
40.2174	350.0000
40.2266	314.0000
40.2358	315.0000
40.2450	315.0000
40.2543	294.0000
40.2635	299.0000
40.2727	314.0000
40.2819	311.0000
40.2912	288.0000
40.3004	329.0000
40.3096	321.0000
40.3188	321.0000
40.3280	311.0000
40.3373	333.0000
40.3465	278.0000
40.3557	339.0000
40.3649	305.0000
40.3742	337.0000
40.3834	322.0000
40.3926	309.0000
40.4018	299.0000
40.4111	318.0000
40.4203	341.0000
40.4295	309.0000
40.4387	302.0000
40.4479	299.0000
40.4572	328.0000
40.4664	295.0000
40.4756	307.0000
40.4848	321.0000
40.4941	336.0000
40.5033	315.0000
40.5125	313.0000
40.5217	287.0000
40.5309	311.0000
40.5402	306.0000
40.5494	329.0000
40.5586	312.0000
40.5678	328.0000
40.5771	311.0000
40.5863	318.0000
40.5955	325.0000
40.6047	333.0000
40.6139	298.0000
40.6232	311.0000
40.6324	316.0000
40.6416	315.0000
40.6508	309.0000
40.6601	289.0000
40.6693	307.0000
40.6785	291.0000
40.6877	305.0000
40.6970	310.0000
40.7062	295.0000
40.7154	310.0000
40.7246	309.0000
40.7338	329.0000
40.7431	297.0000
40.7523	346.0000
40.7615	302.0000
40.7707	341.0000
40.7800	302.0000
40.7892	308.0000
40.7984	269.0000
40.8076	303.0000
40.8168	306.0000
40.8261	276.0000
40.8353	329.0000
40.8445	333.0000
40.8537	313.0000
40.8630	321.0000
40.8722	310.0000
40.8814	311.0000
40.8906	343.0000
40.8999	312.0000
40.9091	293.0000
40.9183	319.0000
40.9275	315.0000
40.9367	337.0000
40.9460	323.0000
40.9552	305.0000
40.9644	292.0000
40.9736	299.0000
40.9829	304.0000
40.9921	307.0000
41.0013	333.0000
41.0105	293.0000
41.0197	334.0000
41.0290	310.0000
41.0382	326.0000
41.0474	318.0000
41.0566	320.0000
41.0659	308.0000
41.0751	315.0000
41.0843	302.0000
41.0935	318.0000
41.1027	298.0000
41.1120	332.0000
41.1212	299.0000
41.1304	331.0000
41.1396	300.0000
41.1489	316.0000
41.1581	336.0000
41.1673	316.0000
41.1765	307.0000
41.1858	342.0000
41.1950	318.0000
41.2042	309.0000
41.2134	336.0000
41.2226	313.0000
41.2319	307.0000
41.2411	289.0000
41.2503	325.0000
41.2595	321.0000
41.2688	330.0000
41.2780	295.0000
41.2872	318.0000
41.2964	312.0000
41.3056	307.0000
41.3149	300.0000
41.3241	306.0000
41.3333	306.0000
41.3425	338.0000
41.3518	290.0000
41.3610	325.0000
41.3702	291.0000
41.3794	335.0000
41.3887	314.0000
41.3979	337.0000
41.4071	287.0000
41.4163	323.0000
41.4255	295.0000
41.4348	281.0000
41.4440	336.0000
41.4532	317.0000
41.4624	310.0000
41.4717	302.0000
41.4809	311.0000
41.4901	322.0000
41.4993	294.0000
41.5085	307.0000
41.5178	318.0000
41.5270	282.0000
41.5362	312.0000
41.5454	298.0000
41.5547	322.0000
41.5639	313.0000
41.5731	278.0000
41.5823	312.0000
41.5915	316.0000
41.6008	310.0000
41.6100	299.0000
41.6192	318.0000
41.6284	281.0000
41.6377	298.0000
41.6469	318.0000
41.6561	319.0000
41.6653	273.0000
41.6746	308.0000
41.6838	324.0000
41.6930	291.0000
41.7022	332.0000
41.7114	293.0000
41.7207	318.0000
41.7299	318.0000
41.7391	293.0000
41.7483	343.0000
41.7576	296.0000
41.7668	349.0000
41.7760	327.0000
41.7852	300.0000
41.7944	295.0000
41.8037	293.0000
41.8129	308.0000
41.8221	325.0000
41.8313	305.0000
41.8406	292.0000
41.8498	322.0000
41.8590	299.0000
41.8682	298.0000
41.8775	294.0000
41.8867	311.0000
41.8959	319.0000
41.9051	324.0000
41.9143	338.0000
41.9236	274.0000
41.9328	330.0000
41.9420	323.0000
41.9512	314.0000
41.9605	304.0000
41.9697	316.0000
41.9789	303.0000
41.9881	337.0000
41.9973	320.0000
42.0066	310.0000
42.0158	332.0000
42.0250	329.0000
42.0342	309.0000
42.0435	304.0000
42.0527	304.0000
42.0619	328.0000
42.0711	291.0000
42.0804	321.0000
42.0896	324.0000
42.0988	310.0000
42.1080	308.0000
42.1172	303.0000
42.1265	285.0000
42.1357	312.0000
42.1449	333.0000
42.1541	312.0000
42.1634	311.0000
42.1726	324.0000
42.1818	295.0000
42.1910	298.0000
42.2002	336.0000
42.2095	324.0000
42.2187	301.0000
42.2279	271.0000
42.2371	316.0000
42.2464	307.0000
42.2556	280.0000
42.2648	306.0000
42.2740	316.0000
42.2832	310.0000
42.2925	294.0000
42.3017	286.0000
42.3109	286.0000
42.3201	318.0000
42.3294	319.0000
42.3386	280.0000
42.3478	306.0000
42.3570	341.0000
42.3663	290.0000
42.3755	334.0000
42.3847	298.0000
42.3939	289.0000
42.4031	314.0000
42.4124	299.0000
42.4216	320.0000
42.4308	311.0000
42.4400	312.0000
42.4493	321.0000
42.4585	299.0000
42.4677	294.0000
42.4769	286.0000
42.4861	286.0000
42.4954	305.0000
42.5046	314.0000
42.5138	310.0000
42.5230	300.0000
42.5323	319.0000
42.5415	319.0000
42.5507	316.0000
42.5599	325.0000
42.5692	285.0000
42.5784	292.0000
42.5876	319.0000
42.5968	289.0000
42.6060	295.0000
42.6153	311.0000
42.6245	310.0000
42.6337	299.0000
42.6429	308.0000
42.6522	290.0000
42.6614	322.0000
42.6706	304.0000
42.6798	322.0000
42.6890	316.0000
42.6983	301.0000
42.7075	279.0000
42.7167	318.0000
42.7259	313.0000
42.7352	312.0000
42.7444	316.0000
42.7536	305.0000
42.7628	305.0000
42.7720	306.0000
42.7813	319.0000
42.7905	303.0000
42.7997	292.0000
42.8089	300.0000
42.8182	307.0000
42.8274	322.0000
42.8366	280.0000
42.8458	304.0000
42.8551	298.0000
42.8643	334.0000
42.8735	289.0000
42.8827	300.0000
42.8919	269.0000
42.9012	311.0000
42.9104	308.0000
42.9196	308.0000
42.9288	296.0000
42.9381	316.0000
42.9473	309.0000
42.9565	331.0000
42.9657	294.0000
42.9749	308.0000
42.9842	272.0000
42.9934	318.0000
43.0026	311.0000
43.0118	327.0000
43.0211	289.0000
43.0303	284.0000
43.0395	327.0000
43.0487	312.0000
43.0580	297.0000
43.0672	327.0000
43.0764	338.0000
43.0856	295.0000
43.0948	282.0000
43.1041	303.0000
43.1133	321.0000
43.1225	278.0000
43.1317	312.0000
43.1410	275.0000
43.1502	296.0000
43.1594	299.0000
43.1686	301.0000
43.1778	312.0000
43.1871	276.0000
43.1963	285.0000
43.2055	292.0000
43.2147	308.0000
43.2240	315.0000
43.2332	282.0000
43.2424	307.0000
43.2516	270.0000
43.2609	291.0000
43.2701	301.0000
43.2793	319.0000
43.2885	306.0000
43.2977	310.0000
43.3070	283.0000
43.3162	297.0000
43.3254	302.0000
43.3346	292.0000
43.3439	274.0000
43.3531	329.0000
43.3623	335.0000
43.3715	303.0000
43.3807	312.0000
43.3900	310.0000
43.3992	289.0000
43.4084	294.0000
43.4176	317.0000
43.4269	281.0000
43.4361	296.0000
43.4453	285.0000
43.4545	303.0000
43.4637	297.0000
43.4730	291.0000
43.4822	284.0000
43.4914	270.0000
43.5006	325.0000
43.5099	296.0000
43.5191	303.0000
43.5283	287.0000
43.5375	311.0000
43.5468	341.0000
43.5560	296.0000
43.5652	293.0000
43.5744	317.0000
43.5836	289.0000
43.5929	292.0000
43.6021	313.0000
43.6113	331.0000
43.6205	259.0000
43.6298	288.0000
43.6390	290.0000
43.6482	266.0000
43.6574	284.0000
43.6666	285.0000
43.6759	271.0000
43.6851	302.0000
43.6943	276.0000
43.7035	279.0000
43.7128	292.0000
43.7220	307.0000
43.7312	297.0000
43.7404	315.0000
43.7497	292.0000
43.7589	307.0000
43.7681	268.0000
43.7773	290.0000
43.7865	293.0000
43.7958	296.0000
43.8050	299.0000
43.8142	290.0000
43.8234	305.0000
43.8327	293.0000
43.8419	321.0000
43.8511	316.0000
43.8603	275.0000
43.8695	296.0000
43.8788	312.0000
43.8880	308.0000
43.8972	302.0000
43.9064	284.0000
43.9157	306.0000
43.9249	296.0000
43.9341	297.0000
43.9433	303.0000
43.9525	288.0000
43.9618	312.0000
43.9710	283.0000
43.9802	292.0000
43.9894	303.0000
43.9987	315.0000
44.0079	299.0000
44.0171	304.0000
44.0263	315.0000
44.0356	295.0000
44.0448	258.0000
44.0540	301.0000
44.0632	289.0000
44.0724	277.0000
44.0817	283.0000
44.0909	284.0000
44.1001	284.0000
44.1093	271.0000
44.1186	321.0000
44.1278	289.0000
44.1370	302.0000
44.1462	267.0000
44.1554	298.0000
44.1647	285.0000
44.1739	304.0000
44.1831	273.0000
44.1923	290.0000
44.2016	287.0000
44.2108	303.0000
44.2200	292.0000
44.2292	288.0000
44.2385	290.0000
44.2477	303.0000
44.2569	305.0000
44.2661	307.0000
44.2753	290.0000
44.2846	283.0000
44.2938	288.0000
44.3030	319.0000
44.3122	305.0000
44.3215	301.0000
44.3307	296.0000
44.3399	288.0000
44.3491	292.0000
44.3583	307.0000
44.3676	304.0000
44.3768	314.0000
44.3860	281.0000
44.3952	287.0000
44.4045	296.0000
44.4137	290.0000
44.4229	308.0000
44.4321	266.0000
44.4414	306.0000
44.4506	286.0000
44.4598	280.0000
44.4690	290.0000
44.4782	269.0000
44.4875	265.0000
44.4967	276.0000
44.5059	269.0000
44.5151	299.0000
44.5244	281.0000
44.5336	287.0000
44.5428	281.0000
44.5520	294.0000
44.5612	276.0000
44.5705	279.0000
44.5797	298.0000
44.5889	273.0000
44.5981	309.0000
44.6074	258.0000
44.6166	277.0000
44.6258	267.0000
44.6350	294.0000
44.6442	256.0000
44.6535	286.0000
44.6627	274.0000
44.6719	291.0000
44.6811	277.0000
44.6904	287.0000
44.6996	272.0000
44.7088	283.0000
44.7180	298.0000
44.7273	251.0000
44.7365	311.0000
44.7457	280.0000
44.7549	276.0000
44.7641	278.0000
44.7734	271.0000
44.7826	276.0000
44.7918	294.0000
44.8010	300.0000
44.8103	293.0000
44.8195	291.0000
44.8287	302.0000
44.8379	276.0000
44.8471	288.0000
44.8564	266.0000
44.8656	286.0000
44.8748	296.0000
44.8840	287.0000
44.8933	272.0000
44.9025	261.0000
44.9117	290.0000
44.9209	292.0000
44.9302	274.0000
44.9394	269.0000
44.9486	280.0000
44.9578	255.0000
44.9670	298.0000
44.9763	320.0000
44.9855	297.0000
44.9947	268.0000
45.0039	299.0000
45.0132	288.0000
45.0224	266.0000
45.0316	276.0000
45.0408	283.0000
45.0500	291.0000
45.0593	291.0000
45.0685	250.0000
45.0777	286.0000
45.0869	292.0000
45.0962	280.0000
45.1054	307.0000
45.1146	261.0000
45.1238	253.0000
45.1330	278.0000
45.1423	275.0000
45.1515	306.0000
45.1607	256.0000
45.1699	258.0000
45.1792	313.0000
45.1884	283.0000
45.1976	277.0000
45.2068	277.0000
45.2161	268.0000
45.2253	286.0000
45.2345	275.0000
45.2437	270.0000
45.2529	275.0000
45.2622	277.0000
45.2714	287.0000
45.2806	239.0000
45.2898	263.0000
45.2991	276.0000
45.3083	273.0000
45.3175	283.0000
45.3267	303.0000
45.3359	232.0000
45.3452	266.0000
45.3544	240.0000
45.3636	270.0000
45.3728	283.0000
45.3821	270.0000
45.3913	299.0000
45.4005	285.0000
45.4097	281.0000
45.4190	283.0000
45.4282	328.0000
45.4374	276.0000
45.4466	285.0000
45.4558	338.0000
45.4651	345.0000
45.4743	316.0000
45.4835	368.0000
45.4927	328.0000
45.5020	345.0000
45.5112	280.0000
45.5204	285.0000
45.5296	277.0000
45.5388	290.0000
45.5481	284.0000
45.5573	269.0000
45.5665	248.0000
45.5757	277.0000
45.5850	277.0000
45.5942	253.0000
45.6034	260.0000
45.6126	251.0000
45.6219	248.0000
45.6311	251.0000
45.6403	255.0000
45.6495	247.0000
45.6587	260.0000
45.6680	295.0000
45.6772	260.0000
45.6864	257.0000
45.6956	291.0000
45.7049	247.0000
45.7141	271.0000
45.7233	343.0000
45.7325	315.0000
45.7417	302.0000
45.7510	298.0000
45.7602	299.0000
45.7694	313.0000
45.7786	304.0000
45.7879	273.0000
45.7971	254.0000
45.8063	269.0000
45.8155	295.0000
45.8247	261.0000
45.8340	285.0000
45.8432	274.0000
45.8524	276.0000
45.8616	266.0000
45.8709	278.0000
45.8801	241.0000
45.8893	294.0000
45.8985	263.0000
45.9078	257.0000
45.9170	281.0000
45.9262	275.0000
45.9354	243.0000
45.9446	243.0000
45.9539	260.0000
45.9631	245.0000
45.9723	249.0000
45.9815	254.0000
45.9908	261.0000
46.0000	227.0000
46.0092	251.0000
46.0184	280.0000
46.0276	243.0000
46.0369	259.0000
46.0461	258.0000
46.0553	270.0000
46.0645	254.0000
46.0738	260.0000
46.0830	275.0000
46.0922	274.0000
46.1014	266.0000
46.1107	270.0000
46.1199	261.0000
46.1291	275.0000
46.1383	271.0000
46.1475	250.0000
46.1568	234.0000
46.1660	234.0000
46.1752	267.0000
46.1844	257.0000
46.1937	266.0000
46.2029	262.0000
46.2121	286.0000
46.2213	285.0000
46.2305	287.0000
46.2398	230.0000
46.2490	233.0000
46.2582	226.0000
46.2674	259.0000
46.2767	262.0000
46.2859	256.0000
46.2951	266.0000
46.3043	272.0000
46.3135	280.0000
46.3228	247.0000
46.3320	254.0000
46.3412	265.0000
46.3504	269.0000
46.3597	243.0000
46.3689	250.0000
46.3781	272.0000
46.3873	231.0000
46.3966	254.0000
46.4058	244.0000
46.4150	259.0000
46.4242	224.0000
46.4334	277.0000
46.4427	266.0000
46.4519	258.0000
46.4611	266.0000
46.4703	279.0000
46.4796	279.0000
46.4888	273.0000
46.4980	257.0000
46.5072	257.0000
46.5164	239.0000
46.5257	252.0000
46.5349	249.0000
46.5441	271.0000
46.5533	280.0000
46.5626	266.0000
46.5718	240.0000
46.5810	263.0000
46.5902	244.0000
46.5995	256.0000
46.6087	266.0000
46.6179	264.0000
46.6271	256.0000
46.6363	245.0000
46.6456	258.0000
46.6548	237.0000
46.6640	256.0000
46.6732	253.0000
46.6825	237.0000
46.6917	278.0000
46.7009	243.0000
46.7101	258.0000
46.7193	240.0000
46.7286	244.0000
46.7378	249.0000
46.7470	255.0000
46.7562	248.0000
46.7655	236.0000
46.7747	254.0000
46.7839	254.0000
46.7931	268.0000
46.8024	245.0000
46.8116	293.0000
46.8208	248.0000
46.8300	228.0000
46.8392	282.0000
46.8485	269.0000
46.8577	255.0000
46.8669	270.0000
46.8761	275.0000
46.8854	240.0000
46.8946	254.0000
46.9038	249.0000
46.9130	256.0000
46.9222	248.0000
46.9315	269.0000
46.9407	246.0000
46.9499	241.0000
46.9591	215.0000
46.9684	230.0000
46.9776	254.0000
46.9868	271.0000
46.9960	233.0000
47.0052	258.0000
47.0145	293.0000
47.0237	252.0000
47.0329	257.0000
47.0421	235.0000
47.0514	235.0000
47.0606	257.0000
47.0698	266.0000
47.0790	244.0000
47.0883	232.0000
47.0975	257.0000
47.1067	257.0000
47.1159	242.0000
47.1251	258.0000
47.1344	226.0000
47.1436	254.0000
47.1528	266.0000
47.1620	255.0000
47.1713	246.0000
47.1805	232.0000
47.1897	250.0000
47.1989	239.0000
47.2081	270.0000
47.2174	241.0000
47.2266	239.0000
47.2358	258.0000
47.2450	237.0000
47.2543	264.0000
47.2635	239.0000
47.2727	255.0000
47.2819	256.0000
47.2912	248.0000
47.3004	234.0000
47.3096	272.0000
47.3188	232.0000
47.3280	233.0000
47.3373	264.0000
47.3465	247.0000
47.3557	248.0000
47.3649	257.0000
47.3742	252.0000
47.3834	255.0000
47.3926	236.0000
47.4018	228.0000
47.4110	260.0000
47.4203	220.0000
47.4295	221.0000
47.4387	286.0000
47.4479	228.0000
47.4572	217.0000
47.4664	255.0000
47.4756	273.0000
47.4848	242.0000
47.4940	236.0000
47.5033	239.0000
47.5125	251.0000
47.5217	252.0000
47.5309	261.0000
47.5402	243.0000
47.5494	266.0000
47.5586	266.0000
47.5678	220.0000
47.5771	256.0000
47.5863	250.0000
47.5955	243.0000
47.6047	216.0000
47.6139	222.0000
47.6232	231.0000
47.6324	251.0000
47.6416	240.0000
47.6508	245.0000
47.6601	239.0000
47.6693	256.0000
47.6785	211.0000
47.6877	235.0000
47.6969	263.0000
47.7062	268.0000
47.7154	250.0000
47.7246	244.0000
47.7338	227.0000
47.7431	226.0000
47.7523	250.0000
47.7615	243.0000
47.7707	253.0000
47.7800	242.0000
47.7892	261.0000
47.7984	231.0000
47.8076	229.0000
47.8168	270.0000
47.8261	252.0000
47.8353	274.0000
47.8445	258.0000
47.8537	248.0000
47.8630	253.0000
47.8722	235.0000
47.8814	211.0000
47.8906	231.0000
47.8998	226.0000
47.9091	213.0000
47.9183	239.0000
47.9275	248.0000
47.9367	249.0000
47.9460	241.0000
47.9552	231.0000
47.9644	262.0000
47.9736	266.0000
47.9829	231.0000
47.9921	255.0000
48.0013	198.0000
