11.0000	1261.0000
11.0092	1221.0000
11.0184	1179.0000
11.0277	1250.0000
11.0369	1194.0000
11.0461	1232.0000
11.0553	1265.0000
11.0646	1235.0000
11.0738	1268.0000
11.0830	1255.0000
11.0922	1174.0000
11.1014	1289.0000
11.1107	1212.0000
11.1199	1222.0000
11.1291	1236.0000
11.1383	1209.0000
11.1476	1146.0000
11.1568	1202.0000
11.1660	1169.0000
11.1752	1146.0000
11.1845	1191.0000
11.1937	1133.0000
11.2029	1197.0000
11.2121	1197.0000
11.2213	1169.0000
11.2306	1206.0000
11.2398	1100.0000
11.2490	1115.0000
11.2582	1125.0000
11.2675	1187.0000
11.2767	1147.0000
11.2859	1184.0000
11.2951	1093.0000
11.3043	1152.0000
11.3136	1131.0000
11.3228	1117.0000
11.3320	1151.0000
11.3412	1179.0000
11.3505	1135.0000
11.3597	1172.0000
11.3689	1132.0000
11.3781	1043.0000
11.3874	1081.0000
11.3966	1163.0000
11.4058	1075.0000
11.4150	1081.0000
11.4242	1097.0000
11.4335	1068.0000
11.4427	1129.0000
11.4519	1080.0000
11.4611	1068.0000
11.4704	1093.0000
11.4796	1102.0000
11.4888	1054.0000
11.4980	1085.0000
11.5072	1088.0000
11.5165	1085.0000
11.5257	1094.0000
11.5349	1068.0000
11.5441	1017.0000
11.5534	1010.0000
11.5626	1007.0000
11.5718	1042.0000
11.5810	1082.0000
11.5902	1074.0000
11.5995	1046.0000
11.6087	1095.0000
11.6179	1061.0000
11.6271	1020.0000
11.6364	1029.0000
11.6456	1006.0000
11.6548	1046.0000
11.6640	1028.0000
11.6733	1011.0000
11.6825	950.0000
11.6917	980.0000
11.7009	997.0000
11.7101	993.0000
11.7194	947.0000
11.7286	962.0000
11.7378	1032.0000
11.7470	993.0000
11.7563	1010.0000
11.7655	994.0000
11.7747	949.0000
11.7839	987.0000
11.7931	940.0000
11.8024	1015.0000
11.8116	985.0000
11.8208	941.0000
11.8300	972.0000
11.8393	964.0000
11.8485	984.0000
11.8577	931.0000
11.8669	957.0000
11.8762	933.0000
11.8854	890.0000
11.8946	1003.0000
11.9038	1020.0000
11.9130	941.0000
11.9223	881.0000
11.9315	976.0000
11.9407	930.0000
11.9499	930.0000
11.9592	901.0000
11.9684	925.0000
11.9776	950.0000
11.9868	940.0000
11.9960	941.0000
12.0053	912.0000
12.0145	973.0000
12.0237	923.0000
12.0329	953.0000
12.0422	922.0000
12.0514	918.0000
12.0606	880.0000
12.0698	913.0000
12.0791	951.0000
12.0883	897.0000
12.0975	892.0000
12.1067	906.0000
12.1159	886.0000
12.1252	883.0000
12.1344	896.0000
12.1436	874.0000
12.1528	889.0000
12.1621	853.0000
12.1713	818.0000
12.1805	910.0000
12.1897	869.0000
12.1989	873.0000
12.2082	854.0000
12.2174	876.0000
12.2266	898.0000
12.2358	897.0000
12.2451	854.0000
12.2543	862.0000
12.2635	869.0000
12.2727	907.0000
12.2819	853.0000
12.2912	877.0000
12.3004	879.0000
12.3096	847.0000
12.3188	810.0000
12.3281	867.0000
12.3373	835.0000
12.3465	822.0000
12.3557	887.0000
12.3650	725.0000
12.3742	818.0000
12.3834	849.0000
12.3926	825.0000
12.4018	819.0000
12.4111	815.0000
12.4203	796.0000
12.4295	869.0000
12.4387	793.0000
12.4480	794.0000
12.4572	807.0000
12.4664	794.0000
12.4756	860.0000
12.4848	814.0000
12.4941	770.0000
12.5033	753.0000
12.5125	805.0000
12.5217	807.0000
12.5310	771.0000
12.5402	809.0000
12.5494	814.0000
12.5586	751.0000
12.5679	760.0000
12.5771	786.0000
12.5863	835.0000
12.5955	806.0000
12.6047	829.0000
12.6140	756.0000
12.6232	788.0000
12.6324	764.0000
12.6416	815.0000
12.6509	788.0000
12.6601	789.0000
12.6693	747.0000
12.6785	801.0000
12.6877	725.0000
12.6970	795.0000
12.7062	778.0000
12.7154	733.0000
12.7246	725.0000
12.7339	773.0000
12.7431	670.0000
12.7523	752.0000
12.7615	765.0000
12.7707	742.0000
12.7800	776.0000
12.7892	740.0000
12.7984	734.0000
12.8076	765.0000
12.8169	773.0000
12.8261	780.0000
12.8353	727.0000
12.8445	713.0000
12.8538	737.0000
12.8630	728.0000
12.8722	745.0000
12.8814	755.0000
12.8906	703.0000
12.8999	761.0000
12.9091	735.0000
12.9183	713.0000
12.9275	724.0000
12.9368	697.0000
12.9460	737.0000
12.9552	752.0000
12.9644	718.0000
12.9736	694.0000
12.9829	714.0000
12.9921	731.0000
13.0013	690.0000
13.0105	694.0000
13.0198	706.0000
13.0290	725.0000
13.0382	672.0000
13.0474	696.0000
13.0567	688.0000
13.0659	705.0000
13.0751	677.0000
13.0843	660.0000
13.0935	707.0000
13.1028	614.0000
13.1120	711.0000
13.1212	655.0000
13.1304	657.0000
13.1397	708.0000
13.1489	708.0000
13.1581	709.0000
13.1673	656.0000
13.1765	687.0000
13.1858	698.0000
13.1950	655.0000
13.2042	649.0000
13.2134	726.0000
13.2227	724.0000
13.2319	649.0000
13.2411	660.0000
13.2503	689.0000
13.2596	666.0000
13.2688	677.0000
13.2780	673.0000
13.2872	639.0000
13.2964	605.0000
13.3057	677.0000
13.3149	635.0000
13.3241	704.0000
13.3333	628.0000
13.3426	657.0000
13.3518	644.0000
13.3610	723.0000
13.3702	637.0000
13.3794	634.0000
13.3887	668.0000
13.3979	677.0000
13.4071	679.0000
13.4163	670.0000
13.4256	659.0000
13.4348	673.0000
13.4440	694.0000
13.4532	632.0000
13.4624	663.0000
13.4717	632.0000
13.4809	637.0000
13.4901	647.0000
13.4993	624.0000
13.5086	626.0000
13.5178	615.0000
13.5270	634.0000
13.5362	595.0000
13.5455	647.0000
13.5547	622.0000
13.5639	594.0000
13.5731	657.0000
13.5823	583.0000
13.5916	624.0000
13.6008	608.0000
13.6100	624.0000
13.6192	640.0000
13.6285	631.0000
13.6377	558.0000
13.6469	615.0000
13.6561	607.0000
13.6653	687.0000
13.6746	593.0000
13.6838	629.0000
13.6930	628.0000
13.7022	629.0000
13.7115	652.0000
13.7207	667.0000
13.7299	592.0000
13.7391	622.0000
13.7484	627.0000
13.7576	593.0000
13.7668	601.0000
13.7760	577.0000
13.7852	572.0000
13.7945	565.0000
13.8037	597.0000
13.8129	615.0000
13.8221	583.0000
13.8314	645.0000
13.8406	578.0000
13.8498	596.0000
13.8590	647.0000
13.8682	599.0000
13.8775	577.0000
13.8867	580.0000
13.8959	578.0000
13.9051	610.0000
13.9144	607.0000
13.9236	565.0000
13.9328	604.0000
13.9420	626.0000
13.9512	567.0000
13.9605	589.0000
13.9697	592.0000
13.9789	574.0000
13.9881	566.0000
13.9974	567.0000
14.0066	602.0000
14.0158	617.0000
14.0250	576.0000
14.0343	616.0000
14.0435	602.0000
14.0527	586.0000
14.0619	577.0000
14.0711	581.0000
14.0804	569.0000
14.0896	564.0000
14.0988	607.0000
14.1080	575.0000
14.1173	610.0000
14.1265	560.0000
14.1357	598.0000
14.1449	597.0000
14.1541	578.0000
14.1634	600.0000
14.1726	545.0000
14.1818	583.0000
14.1910	562.0000
14.2003	549.0000
14.2095	582.0000
14.2187	575.0000
14.2279	594.0000
14.2372	574.0000
14.2464	567.0000
14.2556	577.0000
14.2648	609.0000
14.2740	518.0000
14.2833	577.0000
14.2925	565.0000
14.3017	528.0000
14.3109	542.0000
14.3202	567.0000
14.3294	578.0000
14.3386	497.0000
14.3478	542.0000
14.3570	559.0000
14.3663	546.0000
14.3755	591.0000
14.3847	527.0000
14.3939	526.0000
14.4032	527.0000
14.4124	556.0000
14.4216	552.0000
14.4308	563.0000
14.4401	559.0000
14.4493	540.0000
14.4585	552.0000
14.4677	532.0000
14.4769	547.0000
14.4862	575.0000
14.4954	549.0000
14.5046	584.0000
14.5138	557.0000
14.5231	556.0000
14.5323	514.0000
14.5415	509.0000
14.5507	543.0000
14.5599	501.0000
14.5692	567.0000
14.5784	502.0000
14.5876	520.0000
14.5968	545.0000
14.6061	604.0000
14.6153	536.0000
14.6245	555.0000
14.6337	549.0000
14.6429	546.0000
14.6522	492.0000
14.6614	526.0000
14.6706	493.0000
14.6798	515.0000
14.6891	552.0000
14.6983	476.0000
14.7075	527.0000
14.7167	555.0000
14.7260	523.0000
14.7352	519.0000
14.7444	478.0000
14.7536	528.0000
14.7628	515.0000
14.7721	554.0000
14.7813	554.0000
14.7905	482.0000
14.7997	550.0000
14.8090	519.0000
14.8182	554.0000
14.8274	510.0000
14.8366	505.0000
14.8458	532.0000
14.8551	556.0000
14.8643	546.0000
14.8735	508.0000
14.8827	465.0000
14.8920	528.0000
14.9012	515.0000
14.9104	562.0000
14.9196	528.0000
14.9289	502.0000
14.9381	467.0000
14.9473	517.0000
14.9565	527.0000
14.9657	513.0000
14.9750	498.0000
14.9842	504.0000
14.9934	508.0000
15.0026	471.0000
15.0119	469.0000
15.0211	524.0000
15.0303	518.0000
15.0395	519.0000
15.0487	496.0000
15.0580	491.0000
15.0672	481.0000
15.0764	498.0000
15.0856	531.0000
15.0949	473.0000
15.1041	539.0000
15.1133	492.0000
15.1225	504.0000
15.1317	508.0000
15.1410	511.0000
15.1502	520.0000
15.1594	513.0000
15.1686	485.0000
15.1779	521.0000
15.1871	519.0000
15.1963	520.0000
15.2055	476.0000
15.2148	512.0000
15.2240	515.0000
15.2332	488.0000
15.2424	467.0000
15.2516	535.0000
15.2609	477.0000
15.2701	508.0000
15.2793	503.0000
15.2885	558.0000
15.2978	520.0000
15.3070	496.0000
15.3162	493.0000
15.3254	460.0000
15.3346	472.0000
15.3439	492.0000
15.3531	541.0000
15.3623	498.0000
15.3715	509.0000
15.3808	466.0000
15.3900	470.0000
15.3992	520.0000
15.4084	500.0000
15.4177	458.0000
15.4269	476.0000
15.4361	464.0000
15.4453	480.0000
15.4545	491.0000
15.4638	507.0000
15.4730	484.0000
15.4822	494.0000
15.4914	469.0000
15.5007	440.0000
15.5099	493.0000
15.5191	438.0000
15.5283	458.0000
15.5375	462.0000
15.5468	432.0000
15.5560	479.0000
15.5652	458.0000
15.5744	466.0000
15.5837	481.0000
15.5929	445.0000
15.6021	452.0000
15.6113	487.0000
15.6206	479.0000
15.6298	465.0000
15.6390	461.0000
15.6482	490.0000
15.6574	484.0000
15.6667	501.0000
15.6759	463.0000
15.6851	461.0000
15.6943	454.0000
15.7036	461.0000
15.7128	452.0000
15.7220	460.0000
15.7312	466.0000
15.7404	462.0000
15.7497	451.0000
15.7589	480.0000
15.7681	422.0000
15.7773	455.0000
15.7866	482.0000
15.7958	448.0000
15.8050	447.0000
15.8142	469.0000
15.8234	418.0000
15.8327	443.0000
15.8419	452.0000
15.8511	432.0000
15.8603	486.0000
15.8696	448.0000
15.8788	440.0000
15.8880	394.0000
15.8972	465.0000
15.9065	455.0000
15.9157	430.0000
15.9249	471.0000
15.9341	465.0000
15.9433	466.0000
15.9526	456.0000
15.9618	450.0000
15.9710	444.0000
15.9802	443.0000
15.9895	456.0000
15.9987	440.0000
16.0079	432.0000
16.0171	445.0000
16.0263	439.0000
16.0356	472.0000
16.0448	476.0000
16.0540	489.0000
16.0632	441.0000
16.0725	447.0000
16.0817	441.0000
16.0909	450.0000
16.1001	427.0000
16.1094	482.0000
16.1186	428.0000
16.1278	464.0000
16.1370	446.0000
16.1462	442.0000
16.1555	444.0000
16.1647	424.0000
16.1739	442.0000
16.1831	454.0000
16.1924	419.0000
16.2016	464.0000
16.2108	480.0000
16.2200	424.0000
16.2292	436.0000
16.2385	448.0000
16.2477	466.0000
16.2569	470.0000
16.2661	444.0000
16.2754	459.0000
16.2846	425.0000
16.2938	415.0000
16.3030	417.0000
16.3122	406.0000
16.3215	442.0000
16.3307	446.0000
16.3399	430.0000
16.3491	452.0000
16.3584	474.0000
16.3676	417.0000
16.3768	414.0000
16.3860	409.0000
16.3953	414.0000
16.4045	428.0000
16.4137	453.0000
16.4229	444.0000
16.4321	436.0000
16.4414	409.0000
16.4506	440.0000
16.4598	407.0000
16.4690	415.0000
16.4783	445.0000
16.4875	406.0000
16.4967	432.0000
16.5059	436.0000
16.5151	423.0000
16.5244	428.0000
16.5336	406.0000
16.5428	446.0000
16.5520	401.0000
16.5613	427.0000
16.5705	431.0000
16.5797	399.0000
16.5889	375.0000
16.5982	444.0000
16.6074	397.0000
16.6166	397.0000
16.6258	416.0000
16.6350	381.0000
16.6443	417.0000
16.6535	396.0000
16.6627	421.0000
16.6719	399.0000
16.6812	420.0000
16.6904	445.0000
16.6996	392.0000
16.7088	420.0000
16.7180	391.0000
16.7273	421.0000
16.7365	466.0000
16.7457	420.0000
16.7549	420.0000
16.7642	424.0000
16.7734	382.0000
16.7826	352.0000
16.7918	400.0000
16.8011	419.0000
16.8103	419.0000
16.8195	423.0000
16.8287	395.0000
16.8379	393.0000
16.8472	386.0000
16.8564	405.0000
16.8656	383.0000
16.8748	409.0000
16.8841	407.0000
16.8933	392.0000
16.9025	430.0000
16.9117	420.0000
16.9209	381.0000
16.9302	406.0000
16.9394	399.0000
16.9486	395.0000
16.9578	385.0000
16.9671	419.0000
16.9763	407.0000
16.9855	372.0000
16.9947	386.0000
17.0039	347.0000
17.0132	368.0000
17.0224	364.0000
17.0316	391.0000
17.0408	388.0000
17.0501	416.0000
17.0593	383.0000
17.0685	433.0000
17.0777	400.0000
17.0870	426.0000
17.0962	411.0000
17.1054	393.0000
17.1146	413.0000
17.1238	383.0000
17.1331	378.0000
17.1423	395.0000
17.1515	375.0000
17.1607	373.0000
17.1700	360.0000
17.1792	395.0000
17.1884	388.0000
17.1976	374.0000
17.2068	393.0000
17.2161	373.0000
17.2253	375.0000
17.2345	405.0000
17.2437	351.0000
17.2530	357.0000
17.2622	404.0000
17.2714	434.0000
17.2806	326.0000
17.2899	387.0000
17.2991	350.0000
17.3083	395.0000
17.3175	381.0000
17.3267	378.0000
17.3360	344.0000
17.3452	394.0000
17.3544	391.0000
17.3636	328.0000
17.3729	348.0000
17.3821	348.0000
17.3913	381.0000
17.4005	351.0000
17.4097	368.0000
17.4190	355.0000
17.4282	345.0000
17.4374	379.0000
17.4466	346.0000
17.4559	370.0000
17.4651	375.0000
17.4743	402.0000
17.4835	372.0000
17.4927	416.0000
17.5020	344.0000
17.5112	345.0000
17.5204	329.0000
17.5296	333.0000
17.5389	370.0000
17.5481	357.0000
17.5573	391.0000
17.5665	385.0000
17.5758	350.0000
17.5850	405.0000
17.5942	392.0000
17.6034	357.0000
17.6126	337.0000
17.6219	383.0000
17.6311	368.0000
17.6403	342.0000
17.6495	346.0000
17.6588	358.0000
17.6680	380.0000
17.6772	340.0000
17.6864	345.0000
17.6956	361.0000
17.7049	345.0000
17.7141	347.0000
17.7233	356.0000
17.7325	363.0000
17.7418	348.0000
17.7510	346.0000
17.7602	339.0000
17.7694	313.0000
17.7787	344.0000
17.7879	350.0000
17.7971	349.0000
17.8063	324.0000
17.8155	364.0000
17.8248	324.0000
17.8340	353.0000
17.8432	358.0000
17.8524	336.0000
17.8617	363.0000
17.8709	327.0000
17.8801	382.0000
17.8893	382.0000
17.8985	337.0000
17.9078	342.0000
17.9170	342.0000
17.9262	333.0000
17.9354	373.0000
17.9447	322.0000
17.9539	330.0000
17.9631	347.0000
17.9723	353.0000
17.9816	339.0000
17.9908	336.0000
18.0000	373.0000
18.0092	384.0000
18.0184	350.0000
18.0277	348.0000
18.0369	373.0000
18.0461	298.0000
18.0553	329.0000
18.0646	341.0000
18.0738	290.0000
18.0830	369.0000
18.0922	333.0000
18.1014	328.0000
18.1107	369.0000
18.1199	347.0000
18.1291	363.0000
18.1383	366.0000
18.1476	310.0000
18.1568	358.0000
18.1660	312.0000
18.1752	355.0000
18.1844	335.0000
18.1937	325.0000
18.2029	344.0000
18.2121	328.0000
18.2213	326.0000
18.2306	319.0000
18.2398	303.0000
18.2490	387.0000
18.2582	317.0000
18.2675	324.0000
18.2767	381.0000
18.2859	327.0000
18.2951	351.0000
18.3043	320.0000
18.3136	337.0000
18.3228	322.0000
18.3320	311.0000
18.3412	362.0000
18.3505	352.0000
18.3597	302.0000
18.3689	335.0000
18.3781	337.0000
18.3873	325.0000
18.3966	306.0000
18.4058	330.0000
18.4150	344.0000
18.4242	337.0000
18.4335	363.0000
18.4427	330.0000
18.4519	310.0000
18.4611	358.0000
18.4704	318.0000
18.4796	369.0000
18.4888	330.0000
18.4980	341.0000
18.5072	343.0000
18.5165	359.0000
18.5257	329.0000
18.5349	342.0000
18.5441	327.0000
18.5534	339.0000
18.5626	335.0000
18.5718	343.0000
18.5810	339.0000
18.5902	294.0000
18.5995	336.0000
18.6087	322.0000
18.6179	324.0000
18.6271	346.0000
18.6364	346.0000
18.6456	333.0000
18.6548	347.0000
18.6640	319.0000
18.6732	326.0000
18.6825	333.0000
18.6917	335.0000
18.7009	344.0000
18.7101	319.0000
18.7194	302.0000
18.7286	344.0000
18.7378	342.0000
18.7470	294.0000
18.7563	321.0000
18.7655	358.0000
18.7747	332.0000
18.7839	305.0000
18.7931	316.0000
18.8024	326.0000
18.8116	319.0000
18.8208	315.0000
18.8300	345.0000
18.8393	353.0000
18.8485	332.0000
18.8577	321.0000
18.8669	331.0000
18.8761	331.0000
18.8854	326.0000
18.8946	353.0000
18.9038	327.0000
18.9130	335.0000
18.9223	349.0000
18.9315	321.0000
18.9407	356.0000
18.9499	346.0000
18.9592	348.0000
18.9684	336.0000
18.9776	342.0000
18.9868	352.0000
18.9960	374.0000
19.0053	337.0000
19.0145	336.0000
19.0237	347.0000
19.0329	343.0000
19.0422	349.0000
19.0514	332.0000
19.0606	314.0000
19.0698	352.0000
19.0790	332.0000
19.0883	342.0000
19.0975	352.0000
19.1067	333.0000
19.1159	325.0000
19.1252	344.0000
19.1344	342.0000
19.1436	353.0000
19.1528	374.0000
19.1621	316.0000
19.1713	333.0000
19.1805	363.0000
19.1897	349.0000
19.1989	341.0000
19.2082	351.0000
19.2174	317.0000
19.2266	345.0000
19.2358	341.0000
19.2451	376.0000
19.2543	338.0000
19.2635	321.0000
19.2727	361.0000
19.2819	348.0000
19.2912	358.0000
19.3004	345.0000
19.3096	349.0000
19.3188	329.0000
19.3281	340.0000
19.3373	301.0000
19.3465	344.0000
19.3557	335.0000
19.3649	331.0000
19.3742	367.0000
19.3834	361.0000
19.3926	363.0000
19.4018	318.0000
19.4111	332.0000
19.4203	354.0000
19.4295	355.0000
19.4387	353.0000
19.4480	318.0000
19.4572	323.0000
19.4664	323.0000
19.4756	362.0000
19.4848	353.0000
19.4941	350.0000
19.5033	338.0000
19.5125	341.0000
19.5217	342.0000
19.5310	347.0000
19.5402	372.0000
19.5494	360.0000
19.5586	303.0000
19.5678	347.0000
19.5771	362.0000
19.5863	354.0000
19.5955	348.0000
19.6047	364.0000
19.6140	345.0000
19.6232	358.0000
19.6324	343.0000
19.6416	312.0000
19.6509	327.0000
19.6601	354.0000
19.6693	342.0000
19.6785	350.0000
19.6877	351.0000
19.6970	349.0000
19.7062	363.0000
19.7154	342.0000
19.7246	345.0000
19.7339	340.0000
19.7431	358.0000
19.7523	322.0000
19.7615	313.0000
19.7707	327.0000
19.7800	354.0000
19.7892	356.0000
19.7984	306.0000
19.8076	320.0000
19.8169	317.0000
19.8261	355.0000
19.8353	347.0000
19.8445	350.0000
19.8537	348.0000
19.8630	327.0000
19.8722	342.0000
19.8814	328.0000
19.8906	361.0000
19.8999	324.0000
19.9091	356.0000
19.9183	341.0000
19.9275	330.0000
19.9368	343.0000
19.9460	343.0000
19.9552	328.0000
19.9644	324.0000
19.9736	320.0000
19.9829	338.0000
19.9921	354.0000
20.0013	311.0000
20.0105	335.0000
20.0198	380.0000
20.0290	337.0000
20.0382	344.0000
20.0474	327.0000
20.0566	339.0000
20.0659	349.0000
20.0751	312.0000
20.0843	324.0000
20.0935	342.0000
20.1028	363.0000
20.1120	346.0000
20.1212	361.0000
20.1304	331.0000
20.1397	343.0000
20.1489	331.0000
20.1581	359.0000
20.1673	339.0000
20.1765	316.0000
20.1858	390.0000
20.1950	339.0000
20.2042	362.0000
20.2134	351.0000
20.2227	332.0000
20.2319	350.0000
20.2411	376.0000
20.2503	344.0000
20.2595	336.0000
20.2688	336.0000
20.2780	346.0000
20.2872	351.0000
20.2964	358.0000
20.3057	359.0000
20.3149	364.0000
20.3241	328.0000
20.3333	311.0000
20.3426	392.0000
20.3518	355.0000
20.3610	342.0000
20.3702	342.0000
20.3794	348.0000
20.3887	364.0000
20.3979	377.0000
20.4071	347.0000
20.4163	353.0000
20.4256	318.0000
20.4348	317.0000
20.4440	306.0000
20.4532	340.0000
20.4624	350.0000
20.4717	320.0000
20.4809	322.0000
20.4901	361.0000
20.4993	346.0000
20.5086	325.0000
20.5178	356.0000
20.5270	344.0000
20.5362	341.0000
20.5454	314.0000
20.5547	317.0000
20.5639	356.0000
20.5731	380.0000
20.5823	327.0000
20.5916	392.0000
20.6008	334.0000
20.6100	341.0000
20.6192	339.0000
20.6285	337.0000
20.6377	321.0000
20.6469	349.0000
20.6561	370.0000
20.6653	380.0000
20.6746	340.0000
20.6838	341.0000
20.6930	344.0000
20.7022	325.0000
20.7115	328.0000
20.7207	321.0000
20.7299	339.0000
20.7391	336.0000
20.7483	356.0000
20.7576	347.0000
20.7668	316.0000
20.7760	331.0000
20.7852	344.0000
20.7945	356.0000
20.8037	320.0000
20.8129	360.0000
20.8221	329.0000
20.8314	325.0000
20.8406	338.0000
20.8498	384.0000
20.8590	340.0000
20.8682	320.0000
20.8775	350.0000
20.8867	344.0000
20.8959	339.0000
20.9051	348.0000
20.9144	358.0000
20.9236	334.0000
20.9328	334.0000
20.9420	316.0000
20.9512	329.0000
20.9605	362.0000
20.9697	323.0000
20.9789	378.0000
20.9881	348.0000
20.9974	353.0000
21.0066	296.0000
21.0158	347.0000
21.0250	360.0000
21.0342	345.0000
21.0435	347.0000
21.0527	393.0000
21.0619	344.0000
21.0711	379.0000
21.0804	354.0000
21.0896	368.0000
21.0988	378.0000
21.1080	363.0000
21.1173	327.0000
21.1265	327.0000
21.1357	373.0000
21.1449	341.0000
21.1541	360.0000
21.1634	351.0000
21.1726	368.0000
21.1818	362.0000
21.1910	399.0000
21.2003	361.0000
21.2095	376.0000
21.2187	388.0000
21.2279	417.0000
21.2371	433.0000
21.2464	580.0000
21.2556	818.0000
21.2648	1128.0000
21.2740	1581.0000
21.2833	1971.0000
21.2925	2233.0000
21.3017	2056.0000
21.3109	1661.0000
21.3202	1095.0000
21.3294	727.0000
21.3386	596.0000
21.3478	490.0000
21.3570	450.0000
21.3663	482.0000
21.3755	542.0000
21.3847	684.0000
21.3939	890.0000
21.4032	1112.0000
21.4124	1306.0000
21.4216	1258.0000
21.4308	1184.0000
21.4400	930.0000
21.4493	704.0000
21.4585	480.0000
21.4677	444.0000
21.4769	422.0000
21.4862	376.0000
21.4954	384.0000
21.5046	353.0000
21.5138	345.0000
21.5231	376.0000
21.5323	343.0000
21.5415	313.0000
21.5507	373.0000
21.5599	347.0000
21.5692	367.0000
21.5784	303.0000
21.5876	349.0000
21.5968	344.0000
21.6061	340.0000
21.6153	353.0000
21.6245	324.0000
21.6337	362.0000
21.6429	344.0000
21.6522	343.0000
21.6614	345.0000
21.6706	342.0000
21.6798	370.0000
21.6891	351.0000
21.6983	334.0000
21.7075	342.0000
21.7167	333.0000
21.7259	328.0000
21.7352	342.0000
21.7444	318.0000
21.7536	346.0000
21.7628	350.0000
21.7721	376.0000
21.7813	359.0000
21.7905	345.0000
21.7997	355.0000
21.8090	340.0000
21.8182	357.0000
21.8274	347.0000
21.8366	321.0000
21.8458	343.0000
21.8551	309.0000
21.8643	318.0000
21.8735	399.0000
21.8827	333.0000
21.8920	333.0000
21.9012	332.0000
21.9104	348.0000
21.9196	362.0000
21.9288	333.0000
21.9381	333.0000
21.9473	336.0000
21.9565	332.0000
21.9657	353.0000
21.9750	350.0000
21.9842	362.0000
21.9934	341.0000
22.0026	330.0000
22.0119	318.0000
22.0211	322.0000
22.0303	335.0000
22.0395	348.0000
22.0487	330.0000
22.0580	340.0000
22.0672	346.0000
22.0764	344.0000
22.0856	326.0000
22.0949	324.0000
22.1041	337.0000
22.1133	339.0000
22.1225	358.0000
22.1317	326.0000
22.1410	342.0000
22.1502	321.0000
22.1594	313.0000
22.1686	317.0000
22.1779	320.0000
22.1871	332.0000
22.1963	395.0000
22.2055	371.0000
22.2147	331.0000
22.2240	309.0000
22.2332	327.0000
22.2424	338.0000
22.2516	302.0000
22.2609	316.0000
22.2701	354.0000
22.2793	298.0000
22.2885	334.0000
22.2978	328.0000
22.3070	320.0000
22.3162	321.0000
22.3254	346.0000
22.3346	356.0000
22.3439	365.0000
22.3531	339.0000
22.3623	311.0000
22.3715	332.0000
22.3808	361.0000
22.3900	349.0000
22.3992	303.0000
22.4084	339.0000
22.4176	334.0000
22.4269	333.0000
22.4361	353.0000
22.4453	319.0000
22.4545	334.0000
22.4638	335.0000
22.4730	337.0000
22.4822	333.0000
22.4914	309.0000
22.5007	318.0000
22.5099	333.0000
22.5191	318.0000
22.5283	297.0000
22.5375	311.0000
22.5468	319.0000
22.5560	360.0000
22.5652	303.0000
22.5744	329.0000
22.5837	339.0000
22.5929	304.0000
22.6021	340.0000
22.6113	318.0000
22.6205	303.0000
22.6298	353.0000
22.6390	339.0000
22.6482	304.0000
22.6574	300.0000
22.6667	351.0000
22.6759	319.0000
22.6851	339.0000
22.6943	316.0000
22.7036	370.0000
22.7128	309.0000
22.7220	349.0000
22.7312	358.0000
22.7404	342.0000
22.7497	353.0000
22.7589	312.0000
22.7681	328.0000
22.7773	301.0000
22.7866	306.0000
22.7958	336.0000
22.8050	346.0000
22.8142	338.0000
22.8234	302.0000
22.8327	343.0000
22.8419	315.0000
22.8511	334.0000
22.8603	337.0000
22.8696	324.0000
22.8788	309.0000
22.8880	326.0000
22.8972	313.0000
22.9064	323.0000
22.9157	320.0000
22.9249	331.0000
22.9341	351.0000
22.9433	326.0000
22.9526	326.0000
22.9618	346.0000
22.9710	331.0000
22.9802	310.0000
22.9895	350.0000
22.9987	320.0000
23.0079	333.0000
23.0171	355.0000
23.0263	327.0000
23.0356	326.0000
23.0448	325.0000
23.0540	296.0000
23.0632	298.0000
23.0725	323.0000
23.0817	315.0000
23.0909	357.0000
23.1001	313.0000
23.1093	318.0000
23.1186	323.0000
23.1278	327.0000
23.1370	307.0000
23.1462	316.0000
23.1555	341.0000
23.1647	302.0000
23.1739	313.0000
23.1831	363.0000
23.1924	305.0000
23.2016	310.0000
23.2108	328.0000
23.2200	327.0000
23.2292	338.0000
23.2385	343.0000
23.2477	306.0000
23.2569	362.0000
23.2661	295.0000
23.2754	331.0000
23.2846	378.0000
23.2938	321.0000
23.3030	317.0000
23.3122	318.0000
23.3215	294.0000
23.3307	310.0000
23.3399	324.0000
23.3491	304.0000
23.3584	295.0000
23.3676	342.0000
23.3768	326.0000
23.3860	289.0000
23.3952	331.0000
23.4045	336.0000
23.4137	317.0000
23.4229	339.0000
23.4321	366.0000
23.4414	320.0000
23.4506	372.0000
23.4598	323.0000
23.4690	324.0000
23.4783	316.0000
23.4875	315.0000
23.4967	317.0000
23.5059	322.0000
23.5151	311.0000
23.5244	307.0000
23.5336	292.0000
23.5428	316.0000
23.5520	335.0000
23.5613	330.0000
23.5705	314.0000
23.5797	307.0000
23.5889	322.0000
23.5981	314.0000
23.6074	319.0000
23.6166	317.0000
23.6258	307.0000
23.6350	343.0000
23.6443	316.0000
23.6535	280.0000
23.6627	330.0000
23.6719	293.0000
23.6812	301.0000
23.6904	331.0000
23.6996	320.0000
23.7088	321.0000
23.7180	320.0000
23.7273	301.0000
23.7365	342.0000
23.7457	334.0000
23.7549	304.0000
23.7642	293.0000
23.7734	336.0000
23.7826	316.0000
23.7918	323.0000
23.8010	371.0000
23.8103	310.0000
23.8195	300.0000
23.8287	298.0000
23.8379	337.0000
23.8472	302.0000
23.8564	323.0000
23.8656	300.0000
23.8748	347.0000
23.8841	326.0000
23.8933	312.0000
23.9025	322.0000
23.9117	313.0000
23.9209	321.0000
23.9302	323.0000
23.9394	321.0000
23.9486	327.0000
23.9578	320.0000
23.9671	317.0000
23.9763	287.0000
23.9855	339.0000
23.9947	351.0000
24.0039	338.0000
24.0132	313.0000
24.0224	307.0000
24.0316	359.0000
24.0408	316.0000
24.0501	335.0000
24.0593	332.0000
24.0685	304.0000
24.0777	349.0000
24.0869	313.0000
24.0962	328.0000
24.1054	315.0000
24.1146	349.0000
24.1238	288.0000
24.1331	361.0000
24.1423	292.0000
24.1515	336.0000
24.1607	316.0000
24.1700	334.0000
24.1792	333.0000
24.1884	326.0000
24.1976	323.0000
24.2068	324.0000
24.2161	321.0000
24.2253	341.0000
24.2345	308.0000
24.2437	342.0000
24.2530	323.0000
24.2622	315.0000
24.2714	315.0000
24.2806	308.0000
24.2898	329.0000
24.2991	303.0000
24.3083	318.0000
24.3175	340.0000
24.3267	330.0000
24.3360	328.0000
24.3452	322.0000
24.3544	307.0000
24.3636	322.0000
24.3729	327.0000
24.3821	311.0000
24.3913	325.0000
24.4005	282.0000
24.4097	305.0000
24.4190	314.0000
24.4282	314.0000
24.4374	322.0000
24.4466	330.0000
24.4559	319.0000
24.4651	304.0000
24.4743	322.0000
24.4835	340.0000
24.4927	321.0000
24.5020	306.0000
24.5112	318.0000
24.5204	317.0000
24.5296	289.0000
24.5389	324.0000
24.5481	304.0000
24.5573	305.0000
24.5665	343.0000
24.5757	308.0000
24.5850	317.0000
24.5942	342.0000
24.6034	335.0000
24.6126	292.0000
24.6219	345.0000
24.6311	319.0000
24.6403	316.0000
24.6495	337.0000
24.6588	306.0000
24.6680	335.0000
24.6772	346.0000
24.6864	308.0000
24.6956	328.0000
24.7049	324.0000
24.7141	332.0000
24.7233	332.0000
24.7325	327.0000
24.7418	301.0000
24.7510	354.0000
24.7602	329.0000
24.7694	320.0000
24.7786	326.0000
24.7879	315.0000
24.7971	285.0000
24.8063	340.0000
24.8155	311.0000
24.8248	338.0000
24.8340	296.0000
24.8432	333.0000
24.8524	309.0000
24.8617	307.0000
24.8709	311.0000
24.8801	317.0000
24.8893	327.0000
24.8985	342.0000
24.9078	335.0000
24.9170	337.0000
24.9262	287.0000
24.9354	395.0000
24.9447	303.0000
24.9539	315.0000
24.9631	338.0000
24.9723	322.0000
24.9815	323.0000
24.9908	325.0000
25.0000	314.0000
25.0092	336.0000
25.0184	323.0000
25.0277	316.0000
25.0369	280.0000
25.0461	336.0000
25.0553	295.0000
25.0646	305.0000
25.0738	349.0000
25.0830	316.0000
25.0922	326.0000
25.1014	312.0000
25.1107	322.0000
25.1199	337.0000
25.1291	314.0000
25.1383	316.0000
25.1476	312.0000
25.1568	309.0000
25.1660	344.0000
25.1752	317.0000
25.1844	319.0000
25.1937	352.0000
25.2029	338.0000
25.2121	332.0000
25.2213	344.0000
25.2306	376.0000
25.2398	304.0000
25.2490	304.0000
25.2582	319.0000
25.2674	343.0000
25.2767	299.0000
25.2859	342.0000
25.2951	327.0000
25.3043	351.0000
25.3136	328.0000
25.3228	320.0000
25.3320	316.0000
25.3412	322.0000
25.3505	345.0000
25.3597	304.0000
25.3689	332.0000
25.3781	347.0000
25.3873	320.0000
25.3966	315.0000
25.4058	341.0000
25.4150	309.0000
25.4242	295.0000
25.4335	332.0000
25.4427	343.0000
25.4519	345.0000
25.4611	314.0000
25.4703	333.0000
25.4796	318.0000
25.4888	297.0000
25.4980	321.0000
25.5072	314.0000
25.5165	331.0000
25.5257	346.0000
25.5349	328.0000
25.5441	338.0000
25.5534	345.0000
25.5626	332.0000
25.5718	320.0000
25.5810	306.0000
25.5902	339.0000
25.5995	342.0000
25.6087	353.0000
25.6179	329.0000
25.6271	353.0000
25.6364	349.0000
25.6456	345.0000
25.6548	324.0000
25.6640	318.0000
25.6732	314.0000
25.6825	363.0000
25.6917	349.0000
25.7009	343.0000
25.7101	312.0000
25.7194	338.0000
25.7286	385.0000
25.7378	339.0000
25.7470	314.0000
25.7562	357.0000
25.7655	342.0000
25.7747	355.0000
25.7839	354.0000
25.7931	311.0000
25.8024	329.0000
25.8116	338.0000
25.8208	329.0000
25.8300	330.0000
25.8393	345.0000
25.8485	341.0000
25.8577	349.0000
25.8669	352.0000
25.8761	335.0000
25.8854	340.0000
25.8946	328.0000
25.9038	356.0000
25.9130	319.0000
25.9223	381.0000
25.9315	345.0000
25.9407	335.0000
25.9499	360.0000
25.9591	335.0000
25.9684	298.0000
25.9776	325.0000
25.9868	344.0000
25.9960	327.0000
26.0053	357.0000
26.0145	335.0000
26.0237	320.0000
26.0329	336.0000
26.0422	341.0000
26.0514	331.0000
26.0606	368.0000
26.0698	329.0000
26.0790	322.0000
26.0883	364.0000
26.0975	320.0000
26.1067	350.0000
26.1159	307.0000
26.1252	335.0000
26.1344	348.0000
26.1436	311.0000
26.1528	340.0000
26.1620	324.0000
26.1713	324.0000
26.1805	371.0000
26.1897	348.0000
26.1989	325.0000
26.2082	341.0000
26.2174	370.0000
26.2266	366.0000
26.2358	347.0000
26.2451	350.0000
26.2543	349.0000
26.2635	325.0000
26.2727	378.0000
26.2819	355.0000
26.2912	313.0000
26.3004	368.0000
26.3096	304.0000
26.3188	292.0000
26.3281	340.0000
26.3373	393.0000
26.3465	341.0000
26.3557	355.0000
26.3649	356.0000
26.3742	325.0000
26.3834	370.0000
26.3926	325.0000
26.4018	338.0000
26.4111	347.0000
26.4203	359.0000
26.4295	334.0000
26.4387	329.0000
26.4479	373.0000
26.4572	336.0000
26.4664	346.0000
26.4756	346.0000
26.4848	345.0000
26.4941	364.0000
26.5033	377.0000
26.5125	332.0000
26.5217	326.0000
26.5310	345.0000
26.5402	334.0000
26.5494	326.0000
26.5586	337.0000
26.5678	356.0000
26.5771	344.0000
26.5863	322.0000
26.5955	386.0000
26.6047	353.0000
26.6140	349.0000
26.6232	366.0000
26.6324	358.0000
26.6416	348.0000
26.6508	326.0000
26.6601	371.0000
26.6693	344.0000
26.6785	346.0000
26.6877	318.0000
26.6970	348.0000
26.7062	339.0000
26.7154	341.0000
26.7246	344.0000
26.7339	375.0000
26.7431	345.0000
26.7523	364.0000
26.7615	336.0000
26.7707	354.0000
26.7800	382.0000
26.7892	336.0000
26.7984	391.0000
26.8076	351.0000
26.8169	361.0000
26.8261	339.0000
26.8353	317.0000
26.8445	368.0000
26.8537	353.0000
26.8630	361.0000
26.8722	352.0000
26.8814	345.0000
26.8906	362.0000
26.8999	352.0000
26.9091	372.0000
26.9183	325.0000
26.9275	351.0000
26.9367	375.0000
26.9460	325.0000
26.9552	335.0000
26.9644	351.0000
26.9736	343.0000
26.9829	363.0000
26.9921	352.0000
27.0013	324.0000
27.0105	353.0000
27.0198	337.0000
27.0290	355.0000
27.0382	381.0000
27.0474	342.0000
27.0566	338.0000
27.0659	324.0000
27.0751	361.0000
27.0843	339.0000
27.0935	359.0000
27.1028	370.0000
27.1120	339.0000
27.1212	343.0000
27.1304	373.0000
27.1396	361.0000
27.1489	348.0000
27.1581	346.0000
27.1673	371.0000
27.1765	381.0000
27.1858	356.0000
27.1950	361.0000
27.2042	359.0000
27.2134	376.0000
27.2227	360.0000
27.2319	336.0000
27.2411	363.0000
27.2503	329.0000
27.2595	393.0000
27.2688	362.0000
27.2780	346.0000
27.2872	375.0000
27.2964	339.0000
27.3057	382.0000
27.3149	371.0000
27.3241	313.0000
27.3333	371.0000
27.3425	392.0000
27.3518	374.0000
27.3610	348.0000
27.3702	347.0000
27.3794	348.0000
27.3887	356.0000
27.3979	360.0000
27.4071	381.0000
27.4163	369.0000
27.4256	381.0000
27.4348	340.0000
27.4440	356.0000
27.4532	381.0000
27.4624	358.0000
27.4717	346.0000
27.4809	355.0000
27.4901	371.0000
27.4993	345.0000
27.5086	359.0000
27.5178	372.0000
27.5270	375.0000
27.5362	382.0000
27.5454	362.0000
27.5547	352.0000
27.5639	340.0000
27.5731	335.0000
27.5823	353.0000
27.5916	353.0000
27.6008	370.0000
27.6100	369.0000
27.6192	348.0000
27.6284	419.0000
27.6377	332.0000
27.6469	374.0000
27.6561	350.0000
27.6653	363.0000
27.6746	370.0000
27.6838	360.0000
27.6930	355.0000
27.7022	332.0000
27.7115	368.0000
27.7207	355.0000
27.7299	348.0000
27.7391	340.0000
27.7483	377.0000
27.7576	359.0000
27.7668	383.0000
27.7760	378.0000
27.7852	332.0000
27.7945	333.0000
27.8037	384.0000
27.8129	349.0000
27.8221	380.0000
27.8313	373.0000
27.8406	381.0000
27.8498	354.0000
27.8590	366.0000
27.8682	355.0000
27.8775	362.0000
27.8867	393.0000
27.8959	389.0000
27.9051	360.0000
27.9144	345.0000
27.9236	357.0000
27.9328	353.0000
27.9420	392.0000
27.9512	383.0000
27.9605	362.0000
27.9697	329.0000
27.9789	382.0000
27.9881	389.0000
27.9974	332.0000
28.0066	374.0000
28.0158	343.0000
28.0250	374.0000
28.0342	363.0000
28.0435	345.0000
28.0527	395.0000
28.0619	371.0000
28.0711	337.0000
28.0804	357.0000
28.0896	369.0000
28.0988	351.0000
28.1080	375.0000
28.1172	364.0000
28.1265	338.0000
28.1357	342.0000
28.1449	354.0000
28.1541	358.0000
28.1634	384.0000
28.1726	371.0000
28.1818	340.0000
28.1910	360.0000
28.2003	354.0000
28.2095	403.0000
28.2187	390.0000
28.2279	370.0000
28.2371	365.0000
28.2464	370.0000
28.2556	361.0000
28.2648	393.0000
28.2740	359.0000
28.2833	344.0000
28.2925	345.0000
28.3017	392.0000
28.3109	350.0000
28.3201	364.0000
28.3294	370.0000
28.3386	355.0000
28.3478	388.0000
28.3570	371.0000
28.3663	392.0000
28.3755	388.0000
28.3847	356.0000
28.3939	356.0000
28.4032	363.0000
28.4124	339.0000
28.4216	358.0000
28.4308	347.0000
28.4400	357.0000
28.4493	352.0000
28.4585	402.0000
28.4677	377.0000
28.4769	343.0000
28.4862	386.0000
28.4954	350.0000
28.5046	391.0000
28.5138	377.0000
28.5230	383.0000
28.5323	422.0000
28.5415	347.0000
28.5507	379.0000
28.5599	389.0000
28.5692	358.0000
28.5784	357.0000
28.5876	348.0000
28.5968	400.0000
28.6061	384.0000
28.6153	367.0000
28.6245	365.0000
28.6337	376.0000
28.6429	398.0000
28.6522	346.0000
28.6614	370.0000
28.6706	344.0000
28.6798	393.0000
28.6891	362.0000
28.6983	354.0000
28.7075	388.0000
28.7167	366.0000
28.7259	377.0000
28.7352	414.0000
28.7444	375.0000
28.7536	375.0000
28.7628	388.0000
28.7721	377.0000
28.7813	362.0000
28.7905	385.0000
28.7997	372.0000
28.8089	366.0000
28.8182	369.0000
28.8274	391.0000
28.8366	393.0000
28.8458	393.0000
28.8551	376.0000
28.8643	321.0000
28.8735	399.0000
28.8827	389.0000
28.8920	395.0000
28.9012	393.0000
28.9104	386.0000
28.9196	374.0000
28.9288	356.0000
28.9381	352.0000
28.9473	373.0000
28.9565	378.0000
28.9657	378.0000
28.9750	342.0000
28.9842	405.0000
28.9934	412.0000
29.0026	403.0000
29.0118	367.0000
29.0211	373.0000
29.0303	364.0000
29.0395	368.0000
29.0487	378.0000
29.0580	344.0000
29.0672	347.0000
29.0764	366.0000
29.0856	392.0000
29.0949	385.0000
29.1041	349.0000
29.1133	391.0000
29.1225	383.0000
29.1317	374.0000
29.1410	362.0000
29.1502	372.0000
29.1594	372.0000
29.1686	344.0000
29.1779	349.0000
29.1871	375.0000
29.1963	352.0000
29.2055	365.0000
29.2147	365.0000
29.2240	359.0000
29.2332	391.0000
29.2424	358.0000
29.2516	383.0000
29.2609	362.0000
29.2701	396.0000
29.2793	396.0000
29.2885	382.0000
29.2977	383.0000
29.3070	340.0000
29.3162	362.0000
29.3254	429.0000
29.3346	378.0000
29.3439	349.0000
29.3531	384.0000
29.3623	368.0000
29.3715	357.0000
29.3808	358.0000
29.3900	384.0000
29.3992	356.0000
29.4084	373.0000
29.4176	390.0000
29.4269	368.0000
29.4361	314.0000
29.4453	410.0000
29.4545	396.0000
29.4638	382.0000
29.4730	407.0000
29.4822	345.0000
29.4914	385.0000
29.5006	350.0000
29.5099	384.0000
29.5191	392.0000
29.5283	428.0000
29.5375	383.0000
29.5468	372.0000
29.5560	361.0000
29.5652	392.0000
29.5744	355.0000
29.5837	388.0000
29.5929	378.0000
29.6021	356.0000
29.6113	360.0000
29.6205	368.0000
29.6298	407.0000
29.6390	355.0000
29.6482	366.0000
29.6574	374.0000
29.6667	354.0000
29.6759	353.0000
29.6851	411.0000
29.6943	390.0000
29.7035	348.0000
29.7128	378.0000
29.7220	370.0000
29.7312	383.0000
29.7404	363.0000
29.7497	380.0000
29.7589	384.0000
29.7681	354.0000
29.7773	371.0000
29.7866	365.0000
29.7958	347.0000
29.8050	341.0000
29.8142	369.0000
29.8234	396.0000
29.8327	363.0000
29.8419	367.0000
29.8511	366.0000
29.8603	363.0000
29.8696	333.0000
29.8788	390.0000
29.8880	363.0000
29.8972	391.0000
29.9064	370.0000
29.9157	373.0000
29.9249	358.0000
29.9341	391.0000
29.9433	374.0000
29.9526	373.0000
29.9618	348.0000
29.9710	354.0000
29.9802	383.0000
29.9894	387.0000
29.9987	379.0000
30.0079	343.0000
30.0171	360.0000
30.0263	368.0000
30.0356	361.0000
30.0448	396.0000
30.0540	362.0000
30.0632	354.0000
30.0725	368.0000
30.0817	407.0000
30.0909	361.0000
30.1001	361.0000
30.1093	381.0000
30.1186	387.0000
30.1278	374.0000
30.1370	343.0000
30.1462	379.0000
30.1555	389.0000
30.1647	351.0000
30.1739	376.0000
30.1831	399.0000
30.1923	389.0000
30.2016	363.0000
30.2108	371.0000
30.2200	382.0000
30.2292	369.0000
30.2385	365.0000
30.2477	379.0000
30.2569	384.0000
30.2661	421.0000
30.2754	329.0000
30.2846	361.0000
30.2938	384.0000
30.3030	382.0000
30.3122	390.0000
30.3215	360.0000
30.3307	363.0000
30.3399	377.0000
30.3491	357.0000
30.3584	401.0000
30.3676	339.0000
30.3768	369.0000
30.3860	375.0000
30.3952	382.0000
30.4045	367.0000
30.4137	339.0000
30.4229	343.0000
30.4321	379.0000
30.4414	371.0000
30.4506	368.0000
30.4598	373.0000
30.4690	362.0000
30.4782	377.0000
30.4875	371.0000
30.4967	376.0000
30.5059	343.0000
30.5151	325.0000
30.5244	364.0000
30.5336	397.0000
30.5428	380.0000
30.5520	344.0000
30.5613	377.0000
30.5705	380.0000
30.5797	367.0000
30.5889	348.0000
30.5981	366.0000
30.6074	392.0000
30.6166	377.0000
30.6258	404.0000
30.6350	385.0000
30.6443	374.0000
30.6535	364.0000
30.6627	355.0000
30.6719	328.0000
30.6811	353.0000
30.6904	327.0000
30.6996	371.0000
30.7088	334.0000
30.7180	378.0000
30.7273	360.0000
30.7365	381.0000
30.7457	354.0000
30.7549	345.0000
30.7642	365.0000
30.7734	325.0000
30.7826	357.0000
30.7918	331.0000
30.8010	361.0000
30.8103	350.0000
30.8195	366.0000
30.8287	341.0000
30.8379	342.0000
30.8472	364.0000
30.8564	385.0000
30.8656	397.0000
30.8748	365.0000
30.8840	392.0000
30.8933	369.0000
30.9025	358.0000
30.9117	388.0000
30.9209	360.0000
30.9302	377.0000
30.9394	375.0000
30.9486	308.0000
30.9578	353.0000
30.9671	328.0000
30.9763	372.0000
30.9855	377.0000
30.9947	370.0000
31.0039	371.0000
31.0132	330.0000
31.0224	391.0000
31.0316	379.0000
31.0408	379.0000
31.0501	355.0000
31.0593	308.0000
31.0685	357.0000
31.0777	354.0000
31.0869	349.0000
31.0962	351.0000
31.1054	362.0000
31.1146	379.0000
31.1238	342.0000
31.1331	390.0000
31.1423	367.0000
31.1515	359.0000
31.1607	351.0000
31.1699	369.0000
31.1792	394.0000
31.1884	362.0000
31.1976	355.0000
31.2068	388.0000
31.2161	374.0000
31.2253	372.0000
31.2345	345.0000
31.2437	371.0000
31.2530	383.0000
31.2622	418.0000
31.2714	338.0000
31.2806	364.0000
31.2898	340.0000
31.2991	375.0000
31.3083	362.0000
31.3175	377.0000
31.3267	365.0000
31.3360	405.0000
31.3452	353.0000
31.3544	339.0000
31.3636	368.0000
31.3728	337.0000
31.3821	374.0000
31.3913	349.0000
31.4005	387.0000
31.4097	355.0000
31.4190	341.0000
31.4282	377.0000
31.4374	357.0000
31.4466	359.0000
31.4559	374.0000
31.4651	377.0000
31.4743	340.0000
31.4835	379.0000
31.4927	405.0000
31.5020	314.0000
31.5112	369.0000
31.5204	381.0000
31.5296	373.0000
31.5389	381.0000
31.5481	352.0000
31.5573	369.0000
31.5665	369.0000
31.5757	369.0000
31.5850	346.0000
31.5942	351.0000
31.6034	343.0000
31.6126	336.0000
31.6219	392.0000
31.6311	365.0000
31.6403	352.0000
31.6495	350.0000
31.6587	355.0000
31.6680	333.0000
31.6772	368.0000
31.6864	372.0000
31.6956	358.0000
31.7049	351.0000
31.7141	342.0000
31.7233	339.0000
31.7325	386.0000
31.7418	382.0000
31.7510	352.0000
31.7602	351.0000
31.7694	377.0000
31.7786	391.0000
31.7879	365.0000
31.7971	333.0000
31.8063	371.0000
31.8155	379.0000
31.8248	393.0000
31.8340	371.0000
31.8432	343.0000
31.8524	407.0000
31.8616	372.0000
31.8709	353.0000
31.8801	370.0000
31.8893	356.0000
31.8985	380.0000
31.9078	354.0000
31.9170	389.0000
31.9262	386.0000
31.9354	377.0000
31.9447	366.0000
31.9539	402.0000
31.9631	378.0000
31.9723	334.0000
31.9815	352.0000
31.9908	360.0000
32.0000	381.0000
32.0092	353.0000
32.0184	357.0000
32.0277	369.0000
32.0369	359.0000
32.0461	355.0000
32.0553	349.0000
32.0645	388.0000
32.0738	373.0000
32.0830	379.0000
32.0922	375.0000
32.1014	354.0000
32.1107	368.0000
32.1199	364.0000
32.1291	378.0000
32.1383	372.0000
32.1476	409.0000
32.1568	349.0000
32.1660	362.0000
32.1752	328.0000
32.1844	364.0000
32.1937	393.0000
32.2029	354.0000
32.2121	390.0000
32.2213	349.0000
32.2306	350.0000
32.2398	354.0000
32.2490	332.0000
32.2582	333.0000
32.2674	351.0000
32.2767	360.0000
32.2859	348.0000
32.2951	365.0000
32.3043	380.0000
32.3136	420.0000
32.3228	393.0000
32.3320	356.0000
32.3412	355.0000
32.3504	384.0000
32.3597	373.0000
32.3689	376.0000
32.3781	389.0000
32.3873	357.0000
32.3966	397.0000
32.4058	359.0000
32.4150	398.0000
32.4242	379.0000
32.4335	372.0000
32.4427	344.0000
32.4519	343.0000
32.4611	358.0000
32.4703	403.0000
32.4796	373.0000
32.4888	377.0000
32.4980	337.0000
32.5072	396.0000
32.5165	377.0000
32.5257	333.0000
32.5349	382.0000
32.5441	357.0000
32.5533	363.0000
32.5626	366.0000
32.5718	373.0000
32.5810	366.0000
32.5902	405.0000
32.5995	373.0000
32.6087	389.0000
32.6179	374.0000
32.6271	388.0000
32.6364	357.0000
32.6456	376.0000
32.6548	352.0000
32.6640	349.0000
32.6732	367.0000
32.6825	358.0000
32.6917	365.0000
32.7009	346.0000
32.7101	373.0000
32.7194	385.0000
32.7286	372.0000
32.7378	358.0000
32.7470	374.0000
32.7562	342.0000
32.7655	357.0000
32.7747	385.0000
32.7839	362.0000
32.7931	400.0000
32.8024	373.0000
32.8116	370.0000
32.8208	377.0000
32.8300	363.0000
32.8392	345.0000
32.8485	379.0000
32.8577	357.0000
32.8669	381.0000
32.8761	381.0000
32.8854	366.0000
32.8946	382.0000
32.9038	366.0000
32.9130	363.0000
32.9223	384.0000
32.9315	379.0000
32.9407	350.0000
32.9499	372.0000
32.9591	365.0000
32.9684	370.0000
32.9776	356.0000
32.9868	372.0000
32.9960	331.0000
33.0053	394.0000
33.0145	368.0000
33.0237	347.0000
33.0329	364.0000
33.0421	400.0000
33.0514	393.0000
33.0606	362.0000
33.0698	378.0000
33.0790	350.0000
33.0883	358.0000
33.0975	380.0000
33.1067	375.0000
33.1159	373.0000
33.1252	322.0000
33.1344	383.0000
33.1436	367.0000
33.1528	373.0000
33.1620	377.0000
33.1713	338.0000
33.1805	347.0000
33.1897	374.0000
33.1989	358.0000
33.2082	357.0000
33.2174	374.0000
33.2266	355.0000
33.2358	369.0000
33.2450	371.0000
33.2543	391.0000
33.2635	374.0000
33.2727	370.0000
33.2819	357.0000
33.2912	347.0000
33.3004	375.0000
33.3096	361.0000
33.3188	344.0000
33.3281	368.0000
33.3373	388.0000
33.3465	410.0000
33.3557	375.0000
33.3649	359.0000
33.3742	374.0000
33.3834	413.0000
33.3926	373.0000
33.4018	366.0000
33.4111	344.0000
33.4203	326.0000
33.4295	387.0000
33.4387	349.0000
33.4479	376.0000
33.4572	362.0000
33.4664	348.0000
33.4756	355.0000
33.4848	388.0000
33.4941	387.0000
33.5033	383.0000
33.5125	367.0000
33.5217	378.0000
33.5309	331.0000
33.5402	385.0000
33.5494	364.0000
33.5586	323.0000
33.5678	372.0000
33.5771	365.0000
33.5863	386.0000
33.5955	372.0000
33.6047	380.0000
33.6140	376.0000
33.6232	382.0000
33.6324	344.0000
33.6416	394.0000
33.6508	353.0000
33.6601	380.0000
33.6693	364.0000
33.6785	356.0000
33.6877	330.0000
33.6970	342.0000
33.7062	371.0000
33.7154	363.0000
33.7246	365.0000
33.7338	368.0000
33.7431	352.0000
33.7523	339.0000
33.7615	367.0000
33.7707	395.0000
33.7800	407.0000
33.7892	372.0000
33.7984	386.0000
33.8076	349.0000
33.8169	324.0000
33.8261	374.0000
33.8353	392.0000
33.8445	356.0000
33.8537	380.0000
33.8630	372.0000
33.8722	372.0000
33.8814	369.0000
33.8906	350.0000
33.8999	341.0000
33.9091	337.0000
33.9183	341.0000
33.9275	392.0000
33.9367	373.0000
33.9460	334.0000
33.9552	344.0000
33.9644	361.0000
33.9736	330.0000
33.9829	356.0000
33.9921	371.0000
34.0013	355.0000
34.0105	397.0000
34.0197	384.0000
34.0290	344.0000
34.0382	343.0000
34.0474	371.0000
34.0566	369.0000
34.0659	359.0000
34.0751	365.0000
34.0843	364.0000
34.0935	348.0000
34.1028	334.0000
34.1120	358.0000
34.1212	375.0000
34.1304	375.0000
34.1396	381.0000
34.1489	405.0000
34.1581	377.0000
34.1673	341.0000
34.1765	387.0000
34.1858	363.0000
34.1950	354.0000
34.2042	375.0000
34.2134	362.0000
34.2226	375.0000
34.2319	340.0000
34.2411	354.0000
34.2503	345.0000
34.2595	335.0000
34.2688	370.0000
34.2780	369.0000
34.2872	360.0000
34.2964	354.0000
34.3057	343.0000
34.3149	345.0000
34.3241	399.0000
34.3333	373.0000
34.3425	334.0000
34.3518	361.0000
34.3610	298.0000
34.3702	344.0000
34.3794	346.0000
34.3887	349.0000
34.3979	325.0000
34.4071	352.0000
34.4163	343.0000
34.4255	371.0000
34.4348	342.0000
34.4440	344.0000
34.4532	375.0000
34.4624	315.0000
34.4717	315.0000
34.4809	363.0000
34.4901	340.0000
34.4993	325.0000
34.5086	338.0000
34.5178	352.0000
34.5270	355.0000
34.5362	333.0000
34.5454	325.0000
34.5547	324.0000
34.5639	365.0000
34.5731	394.0000
34.5823	325.0000
34.5916	367.0000
34.6008	358.0000
34.6100	356.0000
34.6192	330.0000
34.6284	346.0000
34.6377	362.0000
34.6469	346.0000
34.6561	340.0000
34.6653	331.0000
34.6746	329.0000
34.6838	297.0000
34.6930	346.0000
34.7022	352.0000
34.7114	366.0000
34.7207	352.0000
34.7299	356.0000
34.7391	321.0000
34.7483	347.0000
34.7576	311.0000
34.7668	344.0000
34.7760	353.0000
34.7852	326.0000
34.7945	306.0000
34.8037	345.0000
34.8129	342.0000
34.8221	323.0000
34.8313	342.0000
34.8406	363.0000
34.8498	356.0000
34.8590	326.0000
34.8682	329.0000
34.8775	318.0000
34.8867	310.0000
34.8959	293.0000
34.9051	325.0000
34.9143	313.0000
34.9236	312.0000
34.9328	321.0000
34.9420	313.0000
34.9512	319.0000
34.9605	316.0000
34.9697	352.0000
34.9789	331.0000
34.9881	335.0000
34.9974	339.0000
35.0066	326.0000
35.0158	335.0000
35.0250	364.0000
35.0342	312.0000
35.0435	301.0000
35.0527	328.0000
35.0619	329.0000
35.0711	281.0000
35.0804	325.0000
35.0896	333.0000
35.0988	330.0000
35.1080	293.0000
35.1172	328.0000
35.1265	309.0000
35.1357	314.0000
35.1449	326.0000
35.1541	301.0000
35.1634	310.0000
35.1726	302.0000
35.1818	304.0000
35.1910	327.0000
35.2002	308.0000
35.2095	301.0000
35.2187	301.0000
35.2279	328.0000
35.2371	307.0000
35.2464	300.0000
35.2556	311.0000
35.2648	303.0000
35.2740	301.0000
35.2833	343.0000
35.2925	288.0000
35.3017	310.0000
35.3109	309.0000
35.3201	306.0000
35.3294	329.0000
35.3386	301.0000
35.3478	270.0000
35.3570	266.0000
35.3663	297.0000
35.3755	280.0000
35.3847	281.0000
35.3939	292.0000
35.4031	300.0000
35.4124	314.0000
35.4216	302.0000
35.4308	318.0000
35.4400	325.0000
35.4493	305.0000
35.4585	327.0000
35.4677	292.0000
35.4769	307.0000
35.4862	293.0000
35.4954	273.0000
35.5046	317.0000
35.5138	290.0000
35.5230	301.0000
35.5323	299.0000
35.5415	313.0000
35.5507	288.0000
35.5599	313.0000
35.5692	267.0000
35.5784	274.0000
35.5876	313.0000
35.5968	309.0000
35.6060	281.0000
35.6153	277.0000
35.6245	285.0000
35.6337	285.0000
35.6429	282.0000
35.6522	283.0000
35.6614	280.0000
35.6706	281.0000
35.6798	325.0000
35.6891	293.0000
35.6983	281.0000
35.7075	274.0000
35.7167	303.0000
35.7259	272.0000
35.7352	297.0000
35.7444	293.0000
35.7536	256.0000
35.7628	288.0000
35.7721	274.0000
35.7813	297.0000
35.7905	267.0000
35.7997	270.0000
35.8089	292.0000
35.8182	276.0000
35.8274	280.0000
35.8366	277.0000
35.8458	268.0000
35.8551	276.0000
35.8643	283.0000
35.8735	287.0000
35.8827	275.0000
35.8919	274.0000
35.9012	269.0000
35.9104	255.0000
35.9196	287.0000
35.9288	268.0000
35.9381	251.0000
35.9473	282.0000
35.9565	270.0000
35.9657	250.0000
35.9750	281.0000
35.9842	305.0000
35.9934	262.0000
36.0026	253.0000
36.0118	278.0000
36.0211	289.0000
36.0303	290.0000
36.0395	271.0000
36.0487	268.0000
36.0580	282.0000
36.0672	273.0000
36.0764	289.0000
36.0856	274.0000
36.0948	286.0000
36.1041	290.0000
36.1133	284.0000
36.1225	276.0000
36.1317	250.0000
36.1410	260.0000
36.1502	259.0000
36.1594	277.0000
36.1686	297.0000
36.1779	233.0000
36.1871	257.0000
36.1963	264.0000
36.2055	264.0000
36.2147	250.0000
36.2240	274.0000
36.2332	266.0000
36.2424	252.0000
36.2516	251.0000
36.2609	258.0000
36.2701	268.0000
36.2793	260.0000
36.2885	240.0000
36.2977	251.0000
36.3070	263.0000
36.3162	240.0000
36.3254	247.0000
36.3346	233.0000
36.3439	266.0000
36.3531	264.0000
36.3623	265.0000
36.3715	260.0000
36.3807	278.0000
36.3900	236.0000
36.3992	245.0000
36.4084	268.0000
36.4176	275.0000
36.4269	237.0000
36.4361	246.0000
36.4453	248.0000
36.4545	245.0000
36.4638	273.0000
36.4730	260.0000
36.4822	239.0000
36.4914	249.0000
36.5006	243.0000
36.5099	251.0000
36.5191	237.0000
36.5283	244.0000
36.5375	245.0000
36.5468	264.0000
36.5560	258.0000
36.5652	252.0000
36.5744	231.0000
36.5836	228.0000
36.5929	231.0000
36.6021	227.0000
36.6113	264.0000
36.6205	235.0000
36.6298	226.0000
36.6390	211.0000
36.6482	255.0000
36.6574	227.0000
36.6667	217.0000
36.6759	237.0000
36.6851	237.0000
36.6943	244.0000
36.7035	224.0000
36.7128	240.0000
36.7220	198.0000
36.7312	240.0000
36.7404	238.0000
36.7497	256.0000
36.7589	224.0000
36.7681	228.0000
36.7773	227.0000
36.7865	242.0000
36.7958	223.0000
36.8050	243.0000
36.8142	217.0000
36.8234	221.0000
36.8327	215.0000
36.8419	230.0000
36.8511	237.0000
36.8603	216.0000
36.8696	217.0000
36.8788	239.0000
36.8880	225.0000
36.8972	236.0000
36.9064	239.0000
36.9157	223.0000
36.9249	247.0000
36.9341	206.0000
36.9433	230.0000
36.9526	229.0000
36.9618	228.0000
36.9710	221.0000
36.9802	222.0000
36.9894	241.0000
36.9987	217.0000
37.0079	203.0000
37.0171	218.0000
37.0263	247.0000
37.0356	210.0000
37.0448	195.0000
37.0540	217.0000
37.0632	275.0000
37.0724	228.0000
37.0817	202.0000
37.0909	219.0000
37.1001	221.0000
37.1093	251.0000
37.1186	236.0000
37.1278	229.0000
37.1370	219.0000
37.1462	184.0000
37.1555	253.0000
37.1647	227.0000
37.1739	228.0000
37.1831	238.0000
37.1923	230.0000
37.2016	221.0000
37.2108	233.0000
37.2200	253.0000
37.2292	258.0000
37.2385	208.0000
37.2477	240.0000
37.2569	238.0000
37.2661	231.0000
37.2753	262.0000
37.2846	266.0000
37.2938	281.0000
37.3030	338.0000
37.3122	403.0000
37.3215	440.0000
37.3307	436.0000
37.3399	445.0000
37.3491	414.0000
37.3584	341.0000
37.3676	289.0000
37.3768	236.0000
37.3860	264.0000
37.3952	236.0000
37.4045	245.0000
37.4137	191.0000
37.4229	231.0000
37.4321	209.0000
37.4414	224.0000
37.4506	230.0000
37.4598	219.0000
37.4690	222.0000
37.4782	227.0000
37.4875	239.0000
37.4967	217.0000
37.5059	230.0000
37.5151	260.0000
37.5244	253.0000
37.5336	282.0000
37.5428	316.0000
37.5520	354.0000
37.5612	312.0000
37.5705	327.0000
37.5797	312.0000
37.5889	286.0000
37.5981	263.0000
37.6074	262.0000
37.6166	216.0000
37.6258	207.0000
37.6350	192.0000
37.6443	207.0000
37.6535	203.0000
37.6627	203.0000
37.6719	220.0000
37.6811	228.0000
37.6904	197.0000
37.6996	199.0000
37.7088	226.0000
37.7180	232.0000
37.7273	201.0000
37.7365	195.0000
37.7457	210.0000
37.7549	219.0000
37.7641	223.0000
37.7734	180.0000
37.7826	185.0000
37.7918	194.0000
37.8010	198.0000
37.8103	220.0000
37.8195	207.0000
37.8287	205.0000
37.8379	213.0000
37.8472	208.0000
37.8564	226.0000
37.8656	197.0000
37.8748	227.0000
37.8840	212.0000
37.8933	218.0000
37.9025	216.0000
37.9117	201.0000
37.9209	199.0000
37.9302	199.0000
37.9394	220.0000
37.9486	220.0000
37.9578	190.0000
37.9670	227.0000
37.9763	188.0000
37.9855	173.0000
37.9947	219.0000
38.0039	197.0000
38.0132	198.0000
38.0224	207.0000
38.0316	192.0000
38.0408	207.0000
38.0501	186.0000
38.0593	205.0000
38.0685	196.0000
38.0777	193.0000
38.0869	201.0000
38.0962	202.0000
38.1054	196.0000
38.1146	192.0000
38.1238	204.0000
38.1331	205.0000
38.1423	169.0000
38.1515	198.0000
38.1607	181.0000
38.1699	186.0000
38.1792	168.0000
38.1884	224.0000
38.1976	200.0000
38.2068	180.0000
38.2161	200.0000
38.2253	198.0000
38.2345	188.0000
38.2437	196.0000
38.2529	215.0000
38.2622	194.0000
38.2714	182.0000
38.2806	193.0000
38.2898	194.0000
38.2991	202.0000
38.3083	181.0000
38.3175	193.0000
38.3267	210.0000
38.3360	205.0000
38.3452	188.0000
38.3544	203.0000
38.3636	201.0000
38.3728	204.0000
38.3821	195.0000
38.3913	170.0000
38.4005	206.0000
38.4097	194.0000
38.4190	196.0000
38.4282	198.0000
38.4374	185.0000
38.4466	197.0000
38.4558	185.0000
38.4651	178.0000
38.4743	209.0000
38.4835	183.0000
38.4927	193.0000
38.5020	194.0000
38.5112	172.0000
38.5204	172.0000
38.5296	187.0000
38.5389	228.0000
38.5481	146.0000
38.5573	203.0000
38.5665	200.0000
38.5757	187.0000
38.5850	222.0000
38.5942	215.0000
38.6034	189.0000
38.6126	186.0000
38.6219	204.0000
38.6311	194.0000
38.6403	195.0000
38.6495	202.0000
38.6587	179.0000
38.6680	185.0000
38.6772	191.0000
38.6864	205.0000
38.6956	197.0000
38.7049	208.0000
38.7141	184.0000
38.7233	200.0000
38.7325	197.0000
38.7417	192.0000
38.7510	183.0000
38.7602	182.0000
38.7694	195.0000
38.7786	201.0000
38.7879	190.0000
38.7971	209.0000
38.8063	172.0000
38.8155	196.0000
38.8248	200.0000
38.8340	182.0000
38.8432	192.0000
38.8524	181.0000
38.8616	190.0000
38.8709	179.0000
38.8801	195.0000
38.8893	174.0000
38.8985	201.0000
38.9078	175.0000
38.9170	205.0000
38.9262	208.0000
38.9354	192.0000
38.9446	220.0000
38.9539	196.0000
38.9631	193.0000
38.9723	179.0000
38.9815	184.0000
38.9908	197.0000
39.0000	185.0000
39.0092	171.0000
39.0184	169.0000
39.0277	191.0000
39.0369	201.0000
39.0461	194.0000
39.0553	182.0000
39.0645	212.0000
39.0738	193.0000
39.0830	184.0000
39.0922	202.0000
39.1014	192.0000
39.1107	195.0000
39.1199	202.0000
39.1291	200.0000
39.1383	199.0000
39.1475	211.0000
39.1568	203.0000
39.1660	172.0000
39.1752	189.0000
39.1844	175.0000
39.1937	179.0000
39.2029	199.0000
39.2121	187.0000
39.2213	178.0000
39.2306	190.0000
39.2398	186.0000
39.2490	212.0000
39.2582	181.0000
39.2674	182.0000
39.2767	204.0000
39.2859	173.0000
39.2951	157.0000
39.3043	209.0000
39.3136	198.0000
39.3228	165.0000
39.3320	172.0000
39.3412	184.0000
39.3504	175.0000
39.3597	205.0000
39.3689	194.0000
39.3781	197.0000
39.3873	179.0000
39.3966	203.0000
39.4058	189.0000
39.4150	190.0000
39.4242	185.0000
39.4334	175.0000
39.4427	162.0000
39.4519	187.0000
39.4611	204.0000
39.4703	187.0000
39.4796	198.0000
39.4888	198.0000
39.4980	204.0000
39.5072	182.0000
39.5165	173.0000
39.5257	191.0000
39.5349	155.0000
39.5441	176.0000
39.5533	159.0000
39.5626	165.0000
39.5718	188.0000
39.5810	203.0000
39.5902	180.0000
39.5995	184.0000
39.6087	196.0000
39.6179	191.0000
39.6271	202.0000
39.6363	203.0000
39.6456	181.0000
39.6548	208.0000
39.6640	192.0000
39.6732	202.0000
39.6825	186.0000
39.6917	204.0000
39.7009	182.0000
39.7101	179.0000
39.7194	186.0000
39.7286	184.0000
39.7378	173.0000
39.7470	176.0000
39.7562	201.0000
39.7655	166.0000
39.7747	184.0000
39.7839	180.0000
39.7931	171.0000
39.8024	218.0000
39.8116	178.0000
39.8208	180.0000
39.8300	183.0000
39.8392	184.0000
39.8485	195.0000
39.8577	182.0000
39.8669	185.0000
39.8761	188.0000
39.8854	201.0000
39.8946	188.0000
39.9038	164.0000
39.9130	186.0000
39.9222	207.0000
39.9315	189.0000
39.9407	182.0000
39.9499	192.0000
39.9591	210.0000
39.9684	180.0000
39.9776	169.0000
39.9868	172.0000
39.9960	183.0000
40.0053	182.0000
40.0145	182.0000
40.0237	186.0000
40.0329	174.0000
40.0421	201.0000
40.0514	188.0000
40.0606	214.0000
40.0698	195.0000
40.0790	188.0000
40.0883	202.0000
40.0975	181.0000
40.1067	200.0000
40.1159	202.0000
40.1251	178.0000
40.1344	185.0000
40.1436	166.0000
40.1528	191.0000
40.1620	167.0000
40.1713	182.0000
40.1805	189.0000
40.1897	201.0000
40.1989	199.0000
40.2082	173.0000
40.2174	160.0000
40.2266	184.0000
40.2358	185.0000
40.2450	181.0000
40.2543	182.0000
40.2635	205.0000
40.2727	163.0000
40.2819	163.0000
40.2912	185.0000
40.3004	191.0000
40.3096	174.0000
40.3188	197.0000
40.3280	189.0000
40.3373	215.0000
40.3465	164.0000
40.3557	192.0000
40.3649	187.0000
40.3742	192.0000
40.3834	186.0000
40.3926	188.0000
40.4018	196.0000
40.4111	156.0000
40.4203	201.0000
40.4295	187.0000
40.4387	166.0000
40.4479	186.0000
40.4572	193.0000
40.4664	187.0000
40.4756	179.0000
40.4848	198.0000
40.4941	171.0000
40.5033	189.0000
40.5125	193.0000
40.5217	186.0000
40.5309	218.0000
40.5402	192.0000
40.5494	210.0000
40.5586	180.0000
40.5678	171.0000
40.5771	211.0000
40.5863	182.0000
40.5955	212.0000
40.6047	202.0000
40.6139	174.0000
40.6232	182.0000
40.6324	193.0000
40.6416	186.0000
40.6508	172.0000
40.6601	177.0000
40.6693	166.0000
40.6785	200.0000
40.6877	172.0000
40.6970	171.0000
40.7062	192.0000
40.7154	180.0000
40.7246	185.0000
40.7338	186.0000
40.7431	201.0000
40.7523	171.0000
40.7615	200.0000
40.7707	185.0000
40.7800	174.0000
40.7892	201.0000
40.7984	161.0000
40.8076	177.0000
40.8168	177.0000
40.8261	201.0000
40.8353	185.0000
40.8445	149.0000
40.8537	184.0000
40.8630	200.0000
40.8722	181.0000
40.8814	168.0000
40.8906	191.0000
40.8999	216.0000
40.9091	173.0000
40.9183	192.0000
40.9275	191.0000
40.9367	182.0000
40.9460	179.0000
40.9552	177.0000
40.9644	180.0000
40.9736	193.0000
40.9829	170.0000
40.9921	182.0000
41.0013	179.0000
41.0105	182.0000
41.0197	201.0000
41.0290	197.0000
41.0382	179.0000
41.0474	179.0000
41.0566	207.0000
41.0659	184.0000
41.0751	228.0000
41.0843	214.0000
41.0935	183.0000
41.1027	195.0000
41.1120	174.0000
41.1212	205.0000
41.1304	192.0000
41.1396	161.0000
41.1489	191.0000
41.1581	200.0000
41.1673	175.0000
41.1765	201.0000
41.1858	195.0000
41.1950	174.0000
41.2042	211.0000
41.2134	162.0000
41.2226	173.0000
41.2319	178.0000
41.2411	170.0000
41.2503	197.0000
41.2595	186.0000
41.2688	175.0000
41.2780	177.0000
41.2872	178.0000
41.2964	198.0000
41.3056	204.0000
41.3149	192.0000
41.3241	202.0000
41.3333	193.0000
41.3425	173.0000
41.3518	178.0000
41.3610	176.0000
41.3702	203.0000
41.3794	163.0000
41.3887	161.0000
41.3979	193.0000
41.4071	174.0000
41.4163	181.0000
41.4255	158.0000
41.4348	171.0000
41.4440	193.0000
41.4532	184.0000
41.4624	184.0000
41.4717	201.0000
41.4809	195.0000
41.4901	201.0000
41.4993	198.0000
41.5085	190.0000
41.5178	185.0000
41.5270	185.0000
41.5362	188.0000
41.5454	180.0000
41.5547	198.0000
41.5639	162.0000
41.5731	187.0000
41.5823	198.0000
41.5915	191.0000
41.6008	174.0000
41.6100	194.0000
41.6192	187.0000
41.6284	201.0000
41.6377	181.0000
41.6469	197.0000
41.6561	176.0000
41.6653	171.0000
41.6746	189.0000
41.6838	159.0000
41.6930	198.0000
41.7022	205.0000
41.7114	177.0000
41.7207	175.0000
41.7299	171.0000
41.7391	174.0000
41.7483	206.0000
41.7576	191.0000
41.7668	194.0000
41.7760	175.0000
41.7852	211.0000
41.7944	195.0000
41.8037	174.0000
41.8129	183.0000
41.8221	196.0000
41.8313	198.0000
41.8406	178.0000
41.8498	176.0000
41.8590	160.0000
41.8682	179.0000
41.8775	184.0000
41.8867	178.0000
41.8959	204.0000
41.9051	164.0000
41.9143	198.0000
41.9236	190.0000
41.9328	185.0000
41.9420	202.0000
41.9512	168.0000
41.9605	191.0000
41.9697	181.0000
41.9789	173.0000
41.9881	175.0000
41.9973	173.0000
42.0066	173.0000
42.0158	198.0000
42.0250	197.0000
42.0342	184.0000
42.0435	173.0000
42.0527	188.0000
42.0619	177.0000
42.0711	188.0000
42.0804	180.0000
42.0896	185.0000
42.0988	186.0000
42.1080	176.0000
42.1172	197.0000
42.1265	177.0000
42.1357	214.0000
42.1449	176.0000
42.1541	190.0000
42.1634	190.0000
42.1726	188.0000
42.1818	192.0000
42.1910	194.0000
42.2002	184.0000
42.2095	167.0000
42.2187	202.0000
42.2279	165.0000
42.2371	182.0000
42.2464	194.0000
42.2556	175.0000
42.2648	173.0000
42.2740	189.0000
42.2832	209.0000
42.2925	185.0000
42.3017	187.0000
42.3109	189.0000
42.3201	180.0000
42.3294	175.0000
42.3386	172.0000
42.3478	186.0000
42.3570	165.0000
42.3663	179.0000
42.3755	195.0000
42.3847	209.0000
42.3939	183.0000
42.4031	175.0000
42.4124	181.0000
42.4216	210.0000
42.4308	190.0000
42.4400	200.0000
42.4493	188.0000
42.4585	149.0000
42.4677	213.0000
42.4769	178.0000
42.4861	201.0000
42.4954	181.0000
42.5046	178.0000
42.5138	194.0000
42.5230	166.0000
42.5323	212.0000
42.5415	168.0000
42.5507	199.0000
42.5599	157.0000
42.5692	180.0000
42.5784	191.0000
42.5876	179.0000
42.5968	187.0000
42.6060	176.0000
42.6153	173.0000
42.6245	174.0000
42.6337	219.0000
42.6429	191.0000
42.6522	161.0000
42.6614	154.0000
42.6706	160.0000
42.6798	177.0000
42.6890	191.0000
42.6983	175.0000
42.7075	190.0000
42.7167	180.0000
42.7259	180.0000
42.7352	186.0000
42.7444	167.0000
42.7536	175.0000
42.7628	201.0000
42.7720	181.0000
42.7813	188.0000
42.7905	179.0000
42.7997	161.0000
42.8089	155.0000
42.8182	193.0000
42.8274	196.0000
42.8366	181.0000
42.8458	179.0000
42.8551	175.0000
42.8643	152.0000
42.8735	170.0000
42.8827	175.0000
42.8919	176.0000
42.9012	192.0000
42.9104	186.0000
42.9196	187.0000
42.9288	175.0000
42.9381	194.0000
42.9473	189.0000
42.9565	181.0000
42.9657	185.0000
42.9749	188.0000
42.9842	196.0000
42.9934	159.0000
43.0026	183.0000
43.0118	154.0000
43.0211	175.0000
43.0303	190.0000
43.0395	185.0000
43.0487	182.0000
43.0580	194.0000
43.0672	192.0000
43.0764	185.0000
43.0856	203.0000
43.0948	177.0000
43.1041	182.0000
43.1133	171.0000
43.1225	177.0000
43.1317	175.0000
43.1410	178.0000
43.1502	194.0000
43.1594	173.0000
43.1686	171.0000
43.1778	200.0000
43.1871	197.0000
43.1963	180.0000
43.2055	197.0000
43.2147	169.0000
43.2240	176.0000
43.2332	199.0000
43.2424	163.0000
43.2516	171.0000
43.2609	145.0000
43.2701	195.0000
43.2793	159.0000
43.2885	203.0000
43.2977	186.0000
43.3070	206.0000
43.3162	181.0000
43.3254	188.0000
43.3346	177.0000
43.3439	218.0000
43.3531	235.0000
43.3623	284.0000
43.3715	306.0000
43.3807	326.0000
43.3900	334.0000
43.3992	311.0000
43.4084	255.0000
43.4176	246.0000
43.4269	212.0000
43.4361	189.0000
43.4453	194.0000
43.4545	196.0000
43.4637	166.0000
43.4730	172.0000
43.4822	192.0000
43.4914	183.0000
43.5006	161.0000
43.5099	194.0000
43.5191	198.0000
43.5283	189.0000
43.5375	167.0000
43.5468	155.0000
43.5560	192.0000
43.5652	200.0000
43.5744	189.0000
43.5836	179.0000
43.5929	187.0000
43.6021	204.0000
43.6113	215.0000
43.6205	224.0000
43.6298	233.0000
43.6390	200.0000
43.6482	270.0000
43.6574	228.0000
43.6666	223.0000
43.6759	254.0000
43.6851	220.0000
43.6943	197.0000
43.7035	198.0000
43.7128	190.0000
43.7220	183.0000
43.7312	181.0000
43.7404	189.0000
43.7497	174.0000
43.7589	179.0000
43.7681	185.0000
43.7773	163.0000
43.7865	190.0000
43.7958	163.0000
43.8050	189.0000
43.8142	187.0000
43.8234	170.0000
43.8327	180.0000
43.8419	185.0000
43.8511	169.0000
43.8603	170.0000
43.8695	161.0000
43.8788	183.0000
43.8880	166.0000
43.8972	187.0000
43.9064	156.0000
43.9157	184.0000
43.9249	187.0000
43.9341	204.0000
43.9433	182.0000
43.9525	194.0000
43.9618	204.0000
43.9710	182.0000
43.9802	179.0000
43.9894	185.0000
43.9987	166.0000
44.0079	172.0000
44.0171	161.0000
44.0263	165.0000
44.0356	189.0000
44.0448	172.0000
44.0540	216.0000
44.0632	183.0000
44.0724	176.0000
44.0817	176.0000
44.0909	178.0000
44.1001	163.0000
44.1093	171.0000
44.1186	153.0000
44.1278	176.0000
44.1370	184.0000
44.1462	189.0000
44.1554	174.0000
44.1647	172.0000
44.1739	193.0000
44.1831	174.0000
44.1923	186.0000
44.2016	160.0000
44.2108	173.0000
44.2200	153.0000
44.2292	151.0000
44.2385	151.0000
44.2477	185.0000
44.2569	168.0000
44.2661	195.0000
44.2753	180.0000
44.2846	177.0000
44.2938	175.0000
44.3030	173.0000
44.3122	171.0000
44.3215	173.0000
44.3307	166.0000
44.3399	191.0000
44.3491	180.0000
44.3583	178.0000
44.3676	181.0000
44.3768	155.0000
44.3860	164.0000
44.3952	192.0000
44.4045	178.0000
44.4137	166.0000
44.4229	175.0000
44.4321	178.0000
44.4414	167.0000
44.4506	169.0000
44.4598	167.0000
44.4690	163.0000
44.4782	163.0000
44.4875	167.0000
44.4967	169.0000
44.5059	168.0000
44.5151	168.0000
44.5244	162.0000
44.5336	156.0000
44.5428	143.0000
44.5520	163.0000
44.5612	158.0000
44.5705	175.0000
44.5797	147.0000
44.5889	168.0000
44.5981	167.0000
44.6074	164.0000
44.6166	172.0000
44.6258	171.0000
44.6350	175.0000
44.6442	148.0000
44.6535	183.0000
44.6627	174.0000
44.6719	165.0000
44.6811	145.0000
44.6904	189.0000
44.6996	190.0000
44.7088	155.0000
44.7180	183.0000
44.7273	176.0000
44.7365	178.0000
44.7457	160.0000
44.7549	179.0000
44.7641	168.0000
44.7734	157.0000
44.7826	196.0000
44.7918	152.0000
44.8010	171.0000
44.8103	172.0000
44.8195	179.0000
44.8287	169.0000
44.8379	177.0000
44.8471	183.0000
44.8564	164.0000
44.8656	166.0000
44.8748	148.0000
44.8840	169.0000
44.8933	169.0000
44.9025	166.0000
44.9117	163.0000
44.9209	184.0000
44.9302	157.0000
44.9394	183.0000
44.9486	161.0000
44.9578	177.0000
44.9670	165.0000
44.9763	162.0000
44.9855	156.0000
44.9947	156.0000
45.0039	159.0000
45.0132	175.0000
45.0224	159.0000
45.0316	193.0000
45.0408	176.0000
45.0500	167.0000
45.0593	173.0000
45.0685	175.0000
45.0777	182.0000
45.0869	168.0000
45.0962	189.0000
45.1054	147.0000
45.1146	171.0000
45.1238	166.0000
45.1330	165.0000
45.1423	163.0000
45.1515	171.0000
45.1607	147.0000
45.1699	153.0000
45.1792	166.0000
45.1884	169.0000
45.1976	151.0000
45.2068	168.0000
45.2161	155.0000
45.2253	163.0000
45.2345	156.0000
45.2437	157.0000
45.2529	164.0000
45.2622	171.0000
45.2714	148.0000
45.2806	158.0000
45.2898	155.0000
45.2991	165.0000
45.3083	179.0000
45.3175	152.0000
45.3267	172.0000
45.3359	155.0000
45.3452	155.0000
45.3544	180.0000
45.3636	167.0000
45.3728	162.0000
45.3821	167.0000
45.3913	183.0000
45.4005	161.0000
45.4097	165.0000
45.4190	157.0000
45.4282	135.0000
45.4374	192.0000
45.4466	156.0000
45.4558	150.0000
45.4651	170.0000
45.4743	175.0000
45.4835	164.0000
45.4927	150.0000
45.5020	163.0000
45.5112	150.0000
45.5204	161.0000
45.5296	146.0000
45.5388	164.0000
45.5481	149.0000
45.5573	176.0000
45.5665	163.0000
45.5757	172.0000
45.5850	147.0000
45.5942	171.0000
45.6034	171.0000
45.6126	178.0000
45.6219	141.0000
45.6311	160.0000
45.6403	165.0000
45.6495	185.0000
45.6587	160.0000
45.6680	157.0000
45.6772	168.0000
45.6864	159.0000
45.6956	156.0000
45.7049	157.0000
45.7141	162.0000
45.7233	157.0000
45.7325	153.0000
45.7417	177.0000
45.7510	153.0000
45.7602	160.0000
45.7694	149.0000
45.7786	161.0000
45.7879	149.0000
45.7971	162.0000
45.8063	158.0000
45.8155	157.0000
45.8247	144.0000
45.8340	144.0000
45.8432	179.0000
45.8524	154.0000
45.8616	159.0000
45.8709	175.0000
45.8801	155.0000
45.8893	163.0000
45.8985	169.0000
45.9078	152.0000
45.9170	163.0000
45.9262	150.0000
45.9354	140.0000
45.9446	165.0000
45.9539	137.0000
45.9631	143.0000
45.9723	171.0000
45.9815	132.0000
45.9908	143.0000
46.0000	162.0000
46.0092	161.0000
46.0184	155.0000
46.0276	167.0000
46.0369	153.0000
46.0461	183.0000
46.0553	162.0000
46.0645	152.0000
46.0738	155.0000
46.0830	154.0000
46.0922	162.0000
46.1014	159.0000
46.1107	164.0000
46.1199	149.0000
46.1291	161.0000
46.1383	159.0000
46.1475	148.0000
46.1568	156.0000
46.1660	172.0000
46.1752	158.0000
46.1844	144.0000
46.1937	159.0000
46.2029	146.0000
46.2121	160.0000
46.2213	171.0000
46.2305	142.0000
46.2398	158.0000
46.2490	155.0000
46.2582	144.0000
46.2674	162.0000
46.2767	158.0000
46.2859	163.0000
46.2951	153.0000
46.3043	179.0000
46.3135	139.0000
46.3228	135.0000
46.3320	147.0000
46.3412	167.0000
46.3504	156.0000
46.3597	152.0000
46.3689	137.0000
46.3781	138.0000
46.3873	154.0000
46.3966	144.0000
46.4058	170.0000
46.4150	168.0000
46.4242	148.0000
46.4334	144.0000
46.4427	161.0000
46.4519	152.0000
46.4611	162.0000
46.4703	152.0000
46.4796	166.0000
46.4888	134.0000
46.4980	161.0000
46.5072	161.0000
46.5164	161.0000
46.5257	153.0000
46.5349	141.0000
46.5441	139.0000
46.5533	135.0000
46.5626	161.0000
46.5718	136.0000
46.5810	151.0000
46.5902	164.0000
46.5995	124.0000
46.6087	164.0000
46.6179	143.0000
46.6271	173.0000
46.6363	146.0000
46.6456	135.0000
46.6548	147.0000
46.6640	149.0000
46.6732	164.0000
46.6825	164.0000
46.6917	135.0000
46.7009	139.0000
46.7101	140.0000
46.7193	156.0000
46.7286	144.0000
46.7378	147.0000
46.7470	154.0000
46.7562	147.0000
46.7655	145.0000
46.7747	164.0000
46.7839	156.0000
46.7931	155.0000
46.8024	155.0000
46.8116	133.0000
46.8208	158.0000
46.8300	129.0000
46.8392	164.0000
46.8485	143.0000
46.8577	158.0000
46.8669	140.0000
46.8761	139.0000
46.8854	135.0000
46.8946	161.0000
46.9038	125.0000
46.9130	131.0000
46.9222	154.0000
46.9315	158.0000
46.9407	136.0000
46.9499	156.0000
46.9591	155.0000
46.9684	155.0000
46.9776	179.0000
46.9868	142.0000
46.9960	143.0000
47.0052	146.0000
47.0145	154.0000
47.0237	156.0000
47.0329	145.0000
47.0421	148.0000
47.0514	138.0000
47.0606	128.0000
47.0698	142.0000
47.0790	159.0000
47.0883	141.0000
47.0975	156.0000
47.1067	150.0000
47.1159	169.0000
47.1251	149.0000
47.1344	157.0000
47.1436	151.0000
47.1528	138.0000
47.1620	163.0000
47.1713	161.0000
47.1805	153.0000
47.1897	126.0000
47.1989	131.0000
47.2081	159.0000
47.2174	170.0000
47.2266	161.0000
47.2358	147.0000
47.2450	146.0000
47.2543	145.0000
47.2635	157.0000
47.2727	138.0000
47.2819	153.0000
47.2912	158.0000
47.3004	169.0000
47.3096	127.0000
47.3188	160.0000
47.3280	142.0000
47.3373	157.0000
47.3465	127.0000
47.3557	146.0000
47.3649	142.0000
47.3742	132.0000
47.3834	161.0000
47.3926	145.0000
47.4018	151.0000
47.4110	164.0000
47.4203	146.0000
47.4295	155.0000
47.4387	146.0000
47.4479	156.0000
47.4572	151.0000
47.4664	141.0000
47.4756	150.0000
47.4848	141.0000
47.4940	144.0000
47.5033	142.0000
47.5125	156.0000
47.5217	130.0000
47.5309	155.0000
47.5402	137.0000
47.5494	150.0000
47.5586	145.0000
47.5678	142.0000
47.5771	136.0000
47.5863	141.0000
47.5955	157.0000
47.6047	150.0000
47.6139	152.0000
47.6232	160.0000
47.6324	140.0000
47.6416	148.0000
47.6508	148.0000
47.6601	137.0000
47.6693	138.0000
47.6785	173.0000
47.6877	153.0000
47.6969	146.0000
47.7062	154.0000
47.7154	136.0000
47.7246	140.0000
47.7338	148.0000
47.7431	133.0000
47.7523	131.0000
47.7615	148.0000
47.7707	136.0000
47.7800	127.0000
47.7892	144.0000
47.7984	129.0000
47.8076	132.0000
47.8168	122.0000
47.8261	132.0000
47.8353	104.0000
47.8445	143.0000
47.8537	139.0000
47.8630	147.0000
47.8722	127.0000
47.8814	122.0000
47.8906	158.0000
47.8998	129.0000
47.9091	168.0000
47.9183	146.0000
47.9275	124.0000
47.9367	172.0000
47.9460	146.0000
47.9552	153.0000
47.9644	163.0000
47.9736	157.0000
47.9829	132.0000
47.9921	135.0000
48.0013	129.0000
