11.0000	1953.0000
11.0092	1992.0000
11.0184	1931.0000
11.0277	1960.0000
11.0369	1870.0000
11.0461	1974.0000
11.0553	1909.0000
11.0646	1972.0000
11.0738	1923.0000
11.0830	1879.0000
11.0922	1911.0000
11.1014	1865.0000
11.1107	1892.0000
11.1199	1858.0000
11.1291	1847.0000
11.1383	1916.0000
11.1476	1874.0000
11.1568	1819.0000
11.1660	1904.0000
11.1752	1845.0000
11.1845	1827.0000
11.1937	1830.0000
11.2029	1716.0000
11.2121	1891.0000
11.2213	1835.0000
11.2306	1879.0000
11.2398	1786.0000
11.2490	1839.0000
11.2582	1753.0000
11.2675	1739.0000
11.2767	1794.0000
11.2859	1826.0000
11.2951	1880.0000
11.3043	1763.0000
11.3136	1787.0000
11.3228	1801.0000
11.3320	1758.0000
11.3412	1751.0000
11.3505	1721.0000
11.3597	1746.0000
11.3689	1758.0000
11.3781	1805.0000
11.3874	1789.0000
11.3966	1797.0000
11.4058	1698.0000
11.4150	1794.0000
11.4242	1738.0000
11.4335	1676.0000
11.4427	1713.0000
11.4519	1707.0000
11.4611	1718.0000
11.4704	1631.0000
11.4796	1685.0000
11.4888	1672.0000
11.4980	1690.0000
11.5072	1696.0000
11.5165	1639.0000
11.5257	1672.0000
11.5349	1647.0000
11.5441	1686.0000
11.5534	1712.0000
11.5626	1643.0000
11.5718	1564.0000
11.5810	1621.0000
11.5902	1677.0000
11.5995	1571.0000
11.6087	1613.0000
11.6179	1595.0000
11.6271	1549.0000
11.6364	1670.0000
11.6456	1625.0000
11.6548	1507.0000
11.6640	1594.0000
11.6733	1622.0000
11.6825	1587.0000
11.6917	1589.0000
11.7009	1584.0000
11.7101	1612.0000
11.7194	1554.0000
11.7286	1516.0000
11.7378	1498.0000
11.7470	1516.0000
11.7563	1596.0000
11.7655	1588.0000
11.7747	1590.0000
11.7839	1592.0000
11.7931	1559.0000
11.8024	1584.0000
11.8116	1499.0000
11.8208	1528.0000
11.8300	1567.0000
11.8393	1566.0000
11.8485	1526.0000
11.8577	1492.0000
11.8669	1445.0000
11.8762	1516.0000
11.8854	1512.0000
11.8946	1553.0000
11.9038	1510.0000
11.9130	1449.0000
11.9223	1578.0000
11.9315	1543.0000
11.9407	1477.0000
11.9499	1437.0000
11.9592	1490.0000
11.9684	1433.0000
11.9776	1517.0000
11.9868	1418.0000
11.9960	1407.0000
12.0053	1455.0000
12.0145	1468.0000
12.0237	1490.0000
12.0329	1416.0000
12.0422	1489.0000
12.0514	1448.0000
12.0606	1404.0000
12.0698	1437.0000
12.0791	1475.0000
12.0883	1412.0000
12.0975	1389.0000
12.1067	1406.0000
12.1159	1487.0000
12.1252	1378.0000
12.1344	1401.0000
12.1436	1363.0000
12.1528	1311.0000
12.1621	1348.0000
12.1713	1370.0000
12.1805	1379.0000
12.1897	1372.0000
12.1989	1428.0000
12.2082	1358.0000
12.2174	1383.0000
12.2266	1314.0000
12.2358	1407.0000
12.2451	1328.0000
12.2543	1428.0000
12.2635	1413.0000
12.2727	1413.0000
12.2819	1304.0000
12.2912	1382.0000
12.3004	1328.0000
12.3096	1319.0000
12.3188	1337.0000
12.3281	1375.0000
12.3373	1369.0000
12.3465	1306.0000
12.3557	1312.0000
12.3650	1343.0000
12.3742	1338.0000
12.3834	1287.0000
12.3926	1295.0000
12.4018	1307.0000
12.4111	1292.0000
12.4203	1235.0000
12.4295	1271.0000
12.4387	1286.0000
12.4480	1246.0000
12.4572	1306.0000
12.4664	1231.0000
12.4756	1307.0000
12.4848	1217.0000
12.4941	1253.0000
12.5033	1312.0000
12.5125	1264.0000
12.5217	1240.0000
12.5310	1264.0000
12.5402	1306.0000
12.5494	1208.0000
12.5586	1271.0000
12.5679	1335.0000
12.5771	1305.0000
12.5863	1243.0000
12.5955	1191.0000
12.6047	1259.0000
12.6140	1232.0000
12.6232	1175.0000
12.6324	1220.0000
12.6416	1224.0000
12.6509	1180.0000
12.6601	1215.0000
12.6693	1249.0000
12.6785	1241.0000
12.6877	1260.0000
12.6970	1234.0000
12.7062	1177.0000
12.7154	1198.0000
12.7246	1209.0000
12.7339	1224.0000
12.7431	1197.0000
12.7523	1200.0000
12.7615	1181.0000
12.7707	1186.0000
12.7800	1213.0000
12.7892	1160.0000
12.7984	1207.0000
12.8076	1174.0000
12.8169	1157.0000
12.8261	1213.0000
12.8353	1160.0000
12.8445	1187.0000
12.8538	1210.0000
12.8630	1190.0000
12.8722	1159.0000
12.8814	1119.0000
12.8906	1165.0000
12.8999	1162.0000
12.9091	1137.0000
12.9183	1171.0000
12.9275	1161.0000
12.9368	1072.0000
12.9460	1075.0000
12.9552	1128.0000
12.9644	1136.0000
12.9736	1137.0000
12.9829	1150.0000
12.9921	1087.0000
13.0013	1130.0000
13.0105	1097.0000
13.0198	1116.0000
13.0290	1119.0000
13.0382	1133.0000
13.0474	1110.0000
13.0567	1108.0000
13.0659	1099.0000
13.0751	1085.0000
13.0843	1132.0000
13.0935	1102.0000
13.1028	1053.0000
13.1120	1100.0000
13.1212	1121.0000
13.1304	1137.0000
13.1397	1099.0000
13.1489	1102.0000
13.1581	1126.0000
13.1673	1059.0000
13.1765	1078.0000
13.1858	1065.0000
13.1950	1032.0000
13.2042	1181.0000
13.2134	1030.0000
13.2227	1030.0000
13.2319	1082.0000
13.2411	1074.0000
13.2503	1098.0000
13.2596	1079.0000
13.2688	971.0000
13.2780	1039.0000
13.2872	1024.0000
13.2964	1098.0000
13.3057	1062.0000
13.3149	1018.0000
13.3241	1001.0000
13.3333	999.0000
13.3426	1047.0000
13.3518	1096.0000
13.3610	1035.0000
13.3702	997.0000
13.3794	1016.0000
13.3887	1003.0000
13.3979	1015.0000
13.4071	1041.0000
13.4163	1004.0000
13.4256	1039.0000
13.4348	1028.0000
13.4440	1045.0000
13.4532	981.0000
13.4624	1031.0000
13.4717	1012.0000
13.4809	1001.0000
13.4901	1046.0000
13.4993	983.0000
13.5086	1045.0000
13.5178	1012.0000
13.5270	1019.0000
13.5362	996.0000
13.5455	988.0000
13.5547	983.0000
13.5639	1044.0000
13.5731	953.0000
13.5823	1031.0000
13.5916	929.0000
13.6008	970.0000
13.6100	1017.0000
13.6192	1048.0000
13.6285	986.0000
13.6377	990.0000
13.6469	914.0000
13.6561	974.0000
13.6653	963.0000
13.6746	960.0000
13.6838	952.0000
13.6930	977.0000
13.7022	995.0000
13.7115	950.0000
13.7207	955.0000
13.7299	973.0000
13.7391	1010.0000
13.7484	952.0000
13.7576	941.0000
13.7668	982.0000
13.7760	1008.0000
13.7852	948.0000
13.7945	980.0000
13.8037	911.0000
13.8129	924.0000
13.8221	995.0000
13.8314	985.0000
13.8406	890.0000
13.8498	945.0000
13.8590	937.0000
13.8682	957.0000
13.8775	920.0000
13.8867	947.0000
13.8959	940.0000
13.9051	965.0000
13.9144	971.0000
13.9236	994.0000
13.9328	925.0000
13.9420	976.0000
13.9512	968.0000
13.9605	945.0000
13.9697	941.0000
13.9789	867.0000
13.9881	892.0000
13.9974	882.0000
14.0066	912.0000
14.0158	897.0000
14.0250	950.0000
14.0343	922.0000
14.0435	914.0000
14.0527	902.0000
14.0619	935.0000
14.0711	868.0000
14.0804	958.0000
14.0896	928.0000
14.0988	900.0000
14.1080	916.0000
14.1173	895.0000
14.1265	902.0000
14.1357	863.0000
14.1449	985.0000
14.1541	875.0000
14.1634	932.0000
14.1726	902.0000
14.1818	862.0000
14.1910	867.0000
14.2003	892.0000
14.2095	899.0000
14.2187	860.0000
14.2279	916.0000
14.2372	900.0000
14.2464	877.0000
14.2556	872.0000
14.2648	954.0000
14.2740	889.0000
14.2833	938.0000
14.2925	869.0000
14.3017	862.0000
14.3109	833.0000
14.3202	892.0000
14.3294	845.0000
14.3386	866.0000
14.3478	830.0000
14.3570	906.0000
14.3663	883.0000
14.3755	897.0000
14.3847	846.0000
14.3939	909.0000
14.4032	871.0000
14.4124	859.0000
14.4216	879.0000
14.4308	840.0000
14.4401	890.0000
14.4493	916.0000
14.4585	827.0000
14.4677	837.0000
14.4769	888.0000
14.4862	845.0000
14.4954	865.0000
14.5046	882.0000
14.5138	864.0000
14.5231	878.0000
14.5323	832.0000
14.5415	787.0000
14.5507	866.0000
14.5599	846.0000
14.5692	864.0000
14.5784	797.0000
14.5876	847.0000
14.5968	813.0000
14.6061	821.0000
14.6153	794.0000
14.6245	860.0000
14.6337	844.0000
14.6429	810.0000
14.6522	834.0000
14.6614	842.0000
14.6706	840.0000
14.6798	822.0000
14.6891	793.0000
14.6983	838.0000
14.7075	819.0000
14.7167	887.0000
14.7260	866.0000
14.7352	821.0000
14.7444	829.0000
14.7536	833.0000
14.7628	864.0000
14.7721	806.0000
14.7813	841.0000
14.7905	824.0000
14.7997	798.0000
14.8090	833.0000
14.8182	825.0000
14.8274	809.0000
14.8366	819.0000
14.8458	807.0000
14.8551	890.0000
14.8643	868.0000
14.8735	789.0000
14.8827	854.0000
14.8920	828.0000
14.9012	777.0000
14.9104	840.0000
14.9196	810.0000
14.9289	835.0000
14.9381	806.0000
14.9473	754.0000
14.9565	755.0000
14.9657	788.0000
14.9750	804.0000
14.9842	842.0000
14.9934	776.0000
15.0026	809.0000
15.0119	788.0000
15.0211	840.0000
15.0303	837.0000
15.0395	764.0000
15.0487	787.0000
15.0580	759.0000
15.0672	789.0000
15.0764	798.0000
15.0856	803.0000
15.0949	802.0000
15.1041	798.0000
15.1133	768.0000
15.1225	754.0000
15.1317	774.0000
15.1410	799.0000
15.1502	808.0000
15.1594	788.0000
15.1686	801.0000
15.1779	754.0000
15.1871	819.0000
15.1963	780.0000
15.2055	768.0000
15.2148	768.0000
15.2240	795.0000
15.2332	807.0000
15.2424	754.0000
15.2516	797.0000
15.2609	808.0000
15.2701	741.0000
15.2793	817.0000
15.2885	760.0000
15.2978	812.0000
15.3070	773.0000
15.3162	769.0000
15.3254	805.0000
15.3346	723.0000
15.3439	764.0000
15.3531	715.0000
15.3623	773.0000
15.3715	756.0000
15.3808	748.0000
15.3900	761.0000
15.3992	791.0000
15.4084	766.0000
15.4177	743.0000
15.4269	769.0000
15.4361	758.0000
15.4453	734.0000
15.4545	733.0000
15.4638	768.0000
15.4730	733.0000
15.4822	736.0000
15.4914	729.0000
15.5007	763.0000
15.5099	752.0000
15.5191	806.0000
15.5283	768.0000
15.5375	741.0000
15.5468	741.0000
15.5560	773.0000
15.5652	737.0000
15.5744	769.0000
15.5837	733.0000
15.5929	692.0000
15.6021	694.0000
15.6113	730.0000
15.6206	666.0000
15.6298	750.0000
15.6390	737.0000
15.6482	778.0000
15.6574	752.0000
15.6667	732.0000
15.6759	737.0000
15.6851	713.0000
15.6943	784.0000
15.7036	744.0000
15.7128	788.0000
15.7220	694.0000
15.7312	746.0000
15.7404	703.0000
15.7497	735.0000
15.7589	695.0000
15.7681	743.0000
15.7773	695.0000
15.7866	718.0000
15.7958	699.0000
15.8050	738.0000
15.8142	738.0000
15.8234	671.0000
15.8327	760.0000
15.8419	740.0000
15.8511	763.0000
15.8603	723.0000
15.8696	725.0000
15.8788	731.0000
15.8880	718.0000
15.8972	728.0000
15.9065	682.0000
15.9157	704.0000
15.9249	721.0000
15.9341	705.0000
15.9433	634.0000
15.9526	682.0000
15.9618	734.0000
15.9710	747.0000
15.9802	716.0000
15.9895	656.0000
15.9987	708.0000
16.0079	690.0000
16.0171	698.0000
16.0263	671.0000
16.0356	682.0000
16.0448	679.0000
16.0540	699.0000
16.0632	706.0000
16.0725	722.0000
16.0817	658.0000
16.0909	679.0000
16.1001	705.0000
16.1094	713.0000
16.1186	681.0000
16.1278	651.0000
16.1370	638.0000
16.1462	672.0000
16.1555	676.0000
16.1647	693.0000
16.1739	668.0000
16.1831	677.0000
16.1924	686.0000
16.2016	645.0000
16.2108	687.0000
16.2200	650.0000
16.2292	696.0000
16.2385	689.0000
16.2477	711.0000
16.2569	684.0000
16.2661	674.0000
16.2754	669.0000
16.2846	713.0000
16.2938	659.0000
16.3030	623.0000
16.3122	697.0000
16.3215	667.0000
16.3307	683.0000
16.3399	700.0000
16.3491	646.0000
16.3584	671.0000
16.3676	696.0000
16.3768	686.0000
16.3860	651.0000
16.3953	661.0000
16.4045	688.0000
16.4137	652.0000
16.4229	723.0000
16.4321	683.0000
16.4414	632.0000
16.4506	658.0000
16.4598	650.0000
16.4690	670.0000
16.4783	659.0000
16.4875	677.0000
16.4967	666.0000
16.5059	652.0000
16.5151	694.0000
16.5244	672.0000
16.5336	632.0000
16.5428	672.0000
16.5520	659.0000
16.5613	615.0000
16.5705	657.0000
16.5797	628.0000
16.5889	595.0000
16.5982	624.0000
16.6074	638.0000
16.6166	677.0000
16.6258	631.0000
16.6350	618.0000
16.6443	676.0000
16.6535	637.0000
16.6627	673.0000
16.6719	675.0000
16.6812	631.0000
16.6904	632.0000
16.6996	658.0000
16.7088	629.0000
16.7180	680.0000
16.7273	632.0000
16.7365	634.0000
16.7457	644.0000
16.7549	670.0000
16.7642	629.0000
16.7734	610.0000
16.7826	620.0000
16.7918	625.0000
16.8011	663.0000
16.8103	644.0000
16.8195	612.0000
16.8287	588.0000
16.8379	630.0000
16.8472	662.0000
16.8564	649.0000
16.8656	646.0000
16.8748	635.0000
16.8841	663.0000
16.8933	595.0000
16.9025	627.0000
16.9117	605.0000
16.9209	574.0000
16.9302	597.0000
16.9394	603.0000
16.9486	586.0000
16.9578	600.0000
16.9671	597.0000
16.9763	607.0000
16.9855	614.0000
16.9947	638.0000
17.0039	584.0000
17.0132	614.0000
17.0224	627.0000
17.0316	612.0000
17.0408	616.0000
17.0501	657.0000
17.0593	611.0000
17.0685	637.0000
17.0777	637.0000
17.0870	619.0000
17.0962	612.0000
17.1054	624.0000
17.1146	612.0000
17.1238	578.0000
17.1331	618.0000
17.1423	575.0000
17.1515	572.0000
17.1607	594.0000
17.1700	583.0000
17.1792	573.0000
17.1884	605.0000
17.1976	637.0000
17.2068	591.0000
17.2161	565.0000
17.2253	561.0000
17.2345	629.0000
17.2437	614.0000
17.2530	610.0000
17.2622	604.0000
17.2714	597.0000
17.2806	581.0000
17.2899	634.0000
17.2991	596.0000
17.3083	607.0000
17.3175	600.0000
17.3267	633.0000
17.3360	587.0000
17.3452	551.0000
17.3544	558.0000
17.3636	607.0000
17.3729	576.0000
17.3821	565.0000
17.3913	608.0000
17.4005	568.0000
17.4097	584.0000
17.4190	557.0000
17.4282	558.0000
17.4374	555.0000
17.4466	580.0000
17.4559	583.0000
17.4651	583.0000
17.4743	590.0000
17.4835	553.0000
17.4927	613.0000
17.5020	581.0000
17.5112	568.0000
17.5204	589.0000
17.5296	562.0000
17.5389	555.0000
17.5481	518.0000
17.5573	557.0000
17.5665	553.0000
17.5758	566.0000
17.5850	543.0000
17.5942	592.0000
17.6034	560.0000
17.6126	561.0000
17.6219	593.0000
17.6311	558.0000
17.6403	584.0000
17.6495	529.0000
17.6588	532.0000
17.6680	544.0000
17.6772	548.0000
17.6864	549.0000
17.6956	576.0000
17.7049	613.0000
17.7141	523.0000
17.7233	540.0000
17.7325	551.0000
17.7418	525.0000
17.7510	537.0000
17.7602	515.0000
17.7694	594.0000
17.7787	578.0000
17.7879	546.0000
17.7971	552.0000
17.8063	505.0000
17.8155	537.0000
17.8248	549.0000
17.8340	541.0000
17.8432	526.0000
17.8524	557.0000
17.8617	533.0000
17.8709	535.0000
17.8801	539.0000
17.8893	513.0000
17.8985	542.0000
17.9078	554.0000
17.9170	542.0000
17.9262	527.0000
17.9354	580.0000
17.9447	534.0000
17.9539	586.0000
17.9631	502.0000
17.9723	543.0000
17.9816	527.0000
17.9908	528.0000
18.0000	540.0000
18.0092	502.0000
18.0184	512.0000
18.0277	512.0000
18.0369	509.0000
18.0461	537.0000
18.0553	524.0000
18.0646	561.0000
18.0738	523.0000
18.0830	526.0000
18.0922	574.0000
18.1014	499.0000
18.1107	561.0000
18.1199	569.0000
18.1291	513.0000
18.1383	521.0000
18.1476	541.0000
18.1568	535.0000
18.1660	534.0000
18.1752	531.0000
18.1844	547.0000
18.1937	518.0000
18.2029	475.0000
18.2121	554.0000
18.2213	491.0000
18.2306	509.0000
18.2398	519.0000
18.2490	517.0000
18.2582	493.0000
18.2675	566.0000
18.2767	525.0000
18.2859	523.0000
18.2951	496.0000
18.3043	502.0000
18.3136	500.0000
18.3228	529.0000
18.3320	531.0000
18.3412	516.0000
18.3505	532.0000
18.3597	565.0000
18.3689	517.0000
18.3781	525.0000
18.3873	527.0000
18.3966	539.0000
18.4058	536.0000
18.4150	506.0000
18.4242	494.0000
18.4335	535.0000
18.4427	520.0000
18.4519	515.0000
18.4611	532.0000
18.4704	514.0000
18.4796	544.0000
18.4888	561.0000
18.4980	545.0000
18.5072	499.0000
18.5165	521.0000
18.5257	506.0000
18.5349	519.0000
18.5441	541.0000
18.5534	521.0000
18.5626	500.0000
18.5718	508.0000
18.5810	522.0000
18.5902	511.0000
18.5995	516.0000
18.6087	490.0000
18.6179	561.0000
18.6271	525.0000
18.6364	517.0000
18.6456	519.0000
18.6548	519.0000
18.6640	518.0000
18.6732	553.0000
18.6825	527.0000
18.6917	521.0000
18.7009	485.0000
18.7101	488.0000
18.7194	531.0000
18.7286	525.0000
18.7378	547.0000
18.7470	523.0000
18.7563	529.0000
18.7655	503.0000
18.7747	506.0000
18.7839	515.0000
18.7931	532.0000
18.8024	573.0000
18.8116	522.0000
18.8208	540.0000
18.8300	494.0000
18.8393	539.0000
18.8485	541.0000
18.8577	500.0000
18.8669	537.0000
18.8761	483.0000
18.8854	540.0000
18.8946	510.0000
18.9038	524.0000
18.9130	520.0000
18.9223	558.0000
18.9315	506.0000
18.9407	528.0000
18.9499	548.0000
18.9592	521.0000
18.9684	556.0000
18.9776	553.0000
18.9868	522.0000
18.9960	504.0000
19.0053	521.0000
19.0145	561.0000
19.0237	526.0000
19.0329	513.0000
19.0422	540.0000
19.0514	524.0000
19.0606	566.0000
19.0698	513.0000
19.0790	510.0000
19.0883	510.0000
19.0975	526.0000
19.1067	528.0000
19.1159	535.0000
19.1252	497.0000
19.1344	545.0000
19.1436	534.0000
19.1528	541.0000
19.1621	520.0000
19.1713	501.0000
19.1805	552.0000
19.1897	503.0000
19.1989	492.0000
19.2082	537.0000
19.2174	513.0000
19.2266	489.0000
19.2358	525.0000
19.2451	542.0000
19.2543	527.0000
19.2635	489.0000
19.2727	558.0000
19.2819	506.0000
19.2912	513.0000
19.3004	529.0000
19.3096	549.0000
19.3188	504.0000
19.3281	530.0000
19.3373	505.0000
19.3465	585.0000
19.3557	546.0000
19.3649	536.0000
19.3742	545.0000
19.3834	541.0000
19.3926	544.0000
19.4018	521.0000
19.4111	501.0000
19.4203	557.0000
19.4295	577.0000
19.4387	526.0000
19.4480	561.0000
19.4572	532.0000
19.4664	561.0000
19.4756	501.0000
19.4848	536.0000
19.4941	565.0000
19.5033	528.0000
19.5125	508.0000
19.5217	506.0000
19.5310	534.0000
19.5402	506.0000
19.5494	553.0000
19.5586	529.0000
19.5678	541.0000
19.5771	527.0000
19.5863	510.0000
19.5955	547.0000
19.6047	531.0000
19.6140	510.0000
19.6232	545.0000
19.6324	445.0000
19.6416	545.0000
19.6509	524.0000
19.6601	534.0000
19.6693	544.0000
19.6785	488.0000
19.6877	495.0000
19.6970	544.0000
19.7062	500.0000
19.7154	532.0000
19.7246	507.0000
19.7339	561.0000
19.7431	540.0000
19.7523	544.0000
19.7615	555.0000
19.7707	534.0000
19.7800	530.0000
19.7892	571.0000
19.7984	548.0000
19.8076	538.0000
19.8169	560.0000
19.8261	516.0000
19.8353	555.0000
19.8445	556.0000
19.8537	531.0000
19.8630	492.0000
19.8722	504.0000
19.8814	534.0000
19.8906	535.0000
19.8999	492.0000
19.9091	547.0000
19.9183	543.0000
19.9275	457.0000
19.9368	543.0000
19.9460	537.0000
19.9552	504.0000
19.9644	558.0000
19.9736	557.0000
19.9829	539.0000
19.9921	536.0000
20.0013	537.0000
20.0105	518.0000
20.0198	580.0000
20.0290	530.0000
20.0382	565.0000
20.0474	540.0000
20.0566	543.0000
20.0659	522.0000
20.0751	571.0000
20.0843	526.0000
20.0935	523.0000
20.1028	514.0000
20.1120	494.0000
20.1212	552.0000
20.1304	498.0000
20.1397	543.0000
20.1489	526.0000
20.1581	560.0000
20.1673	496.0000
20.1765	526.0000
20.1858	507.0000
20.1950	498.0000
20.2042	501.0000
20.2134	541.0000
20.2227	556.0000
20.2319	517.0000
20.2411	535.0000
20.2503	545.0000
20.2595	549.0000
20.2688	552.0000
20.2780	530.0000
20.2872	484.0000
20.2964	506.0000
20.3057	517.0000
20.3149	560.0000
20.3241	477.0000
20.3333	592.0000
20.3426	479.0000
20.3518	557.0000
20.3610	530.0000
20.3702	562.0000
20.3794	551.0000
20.3887	534.0000
20.3979	536.0000
20.4071	537.0000
20.4163	568.0000
20.4256	547.0000
20.4348	575.0000
20.4440	526.0000
20.4532	491.0000
20.4624	519.0000
20.4717	566.0000
20.4809	515.0000
20.4901	507.0000
20.4993	518.0000
20.5086	518.0000
20.5178	557.0000
20.5270	563.0000
20.5362	515.0000
20.5454	567.0000
20.5547	524.0000
20.5639	525.0000
20.5731	548.0000
20.5823	498.0000
20.5916	524.0000
20.6008	511.0000
20.6100	536.0000
20.6192	531.0000
20.6285	527.0000
20.6377	535.0000
20.6469	540.0000
20.6561	521.0000
20.6653	579.0000
20.6746	520.0000
20.6838	505.0000
20.6930	517.0000
20.7022	493.0000
20.7115	520.0000
20.7207	486.0000
20.7299	495.0000
20.7391	519.0000
20.7483	550.0000
20.7576	514.0000
20.7668	527.0000
20.7760	542.0000
20.7852	511.0000
20.7945	589.0000
20.8037	531.0000
20.8129	516.0000
20.8221	525.0000
20.8314	504.0000
20.8406	527.0000
20.8498	525.0000
20.8590	562.0000
20.8682	528.0000
20.8775	514.0000
20.8867	539.0000
20.8959	507.0000
20.9051	498.0000
20.9144	496.0000
20.9236	513.0000
20.9328	553.0000
20.9420	519.0000
20.9512	535.0000
20.9605	543.0000
20.9697	516.0000
20.9789	547.0000
20.9881	542.0000
20.9974	514.0000
21.0066	569.0000
21.0158	522.0000
21.0250	509.0000
21.0342	501.0000
21.0435	508.0000
21.0527	480.0000
21.0619	526.0000
21.0711	535.0000
21.0804	550.0000
21.0896	522.0000
21.0988	521.0000
21.1080	548.0000
21.1173	514.0000
21.1265	524.0000
21.1357	495.0000
21.1449	559.0000
21.1541	537.0000
21.1634	523.0000
21.1726	503.0000
21.1818	513.0000
21.1910	475.0000
21.2003	532.0000
21.2095	539.0000
21.2187	519.0000
21.2279	543.0000
21.2371	486.0000
21.2464	574.0000
21.2556	515.0000
21.2648	508.0000
21.2740	534.0000
21.2833	527.0000
21.2925	508.0000
21.3017	516.0000
21.3109	543.0000
21.3202	479.0000
21.3294	491.0000
21.3386	546.0000
21.3478	513.0000
21.3570	523.0000
21.3663	561.0000
21.3755	528.0000
21.3847	502.0000
21.3939	553.0000
21.4032	554.0000
21.4124	510.0000
21.4216	532.0000
21.4308	485.0000
21.4400	534.0000
21.4493	514.0000
21.4585	493.0000
21.4677	538.0000
21.4769	499.0000
21.4862	516.0000
21.4954	510.0000
21.5046	517.0000
21.5138	517.0000
21.5231	517.0000
21.5323	558.0000
21.5415	522.0000
21.5507	518.0000
21.5599	488.0000
21.5692	529.0000
21.5784	464.0000
21.5876	552.0000
21.5968	524.0000
21.6061	525.0000
21.6153	536.0000
21.6245	517.0000
21.6337	523.0000
21.6429	502.0000
21.6522	500.0000
21.6614	533.0000
21.6706	529.0000
21.6798	507.0000
21.6891	501.0000
21.6983	542.0000
21.7075	524.0000
21.7167	500.0000
21.7259	512.0000
21.7352	513.0000
21.7444	530.0000
21.7536	499.0000
21.7628	515.0000
21.7721	511.0000
21.7813	499.0000
21.7905	533.0000
21.7997	465.0000
21.8090	531.0000
21.8182	547.0000
21.8274	546.0000
21.8366	552.0000
21.8458	589.0000
21.8551	473.0000
21.8643	497.0000
21.8735	512.0000
21.8827	493.0000
21.8920	520.0000
21.9012	498.0000
21.9104	519.0000
21.9196	510.0000
21.9288	528.0000
21.9381	516.0000
21.9473	513.0000
21.9565	525.0000
21.9657	520.0000
21.9750	484.0000
21.9842	483.0000
21.9934	471.0000
22.0026	501.0000
22.0119	507.0000
22.0211	563.0000
22.0303	496.0000
22.0395	517.0000
22.0487	506.0000
22.0580	494.0000
22.0672	538.0000
22.0764	531.0000
22.0856	520.0000
22.0949	514.0000
22.1041	511.0000
22.1133	528.0000
22.1225	495.0000
22.1317	514.0000
22.1410	495.0000
22.1502	482.0000
22.1594	517.0000
22.1686	529.0000
22.1779	566.0000
22.1871	528.0000
22.1963	479.0000
22.2055	490.0000
22.2147	532.0000
22.2240	542.0000
22.2332	522.0000
22.2424	484.0000
22.2516	482.0000
22.2609	481.0000
22.2701	511.0000
22.2793	506.0000
22.2885	476.0000
22.2978	492.0000
22.3070	474.0000
22.3162	504.0000
22.3254	494.0000
22.3346	478.0000
22.3439	481.0000
22.3531	489.0000
22.3623	516.0000
22.3715	537.0000
22.3808	507.0000
22.3900	500.0000
22.3992	506.0000
22.4084	517.0000
22.4176	520.0000
22.4269	518.0000
22.4361	504.0000
22.4453	543.0000
22.4545	486.0000
22.4638	474.0000
22.4730	498.0000
22.4822	449.0000
22.4914	486.0000
22.5007	517.0000
22.5099	529.0000
22.5191	479.0000
22.5283	531.0000
22.5375	495.0000
22.5468	528.0000
22.5560	505.0000
22.5652	491.0000
22.5744	516.0000
22.5837	468.0000
22.5929	503.0000
22.6021	500.0000
22.6113	485.0000
22.6205	522.0000
22.6298	509.0000
22.6390	475.0000
22.6482	471.0000
22.6574	492.0000
22.6667	502.0000
22.6759	518.0000
22.6851	527.0000
22.6943	484.0000
22.7036	521.0000
22.7128	490.0000
22.7220	490.0000
22.7312	496.0000
22.7404	502.0000
22.7497	507.0000
22.7589	527.0000
22.7681	496.0000
22.7773	520.0000
22.7866	506.0000
22.7958	503.0000
22.8050	481.0000
22.8142	482.0000
22.8234	493.0000
22.8327	495.0000
22.8419	522.0000
22.8511	498.0000
22.8603	519.0000
22.8696	473.0000
22.8788	536.0000
22.8880	500.0000
22.8972	523.0000
22.9064	521.0000
22.9157	543.0000
22.9249	492.0000
22.9341	526.0000
22.9433	471.0000
22.9526	502.0000
22.9618	467.0000
22.9710	506.0000
22.9802	535.0000
22.9895	497.0000
22.9987	476.0000
23.0079	478.0000
23.0171	534.0000
23.0263	486.0000
23.0356	495.0000
23.0448	512.0000
23.0540	500.0000
23.0632	529.0000
23.0725	503.0000
23.0817	487.0000
23.0909	555.0000
23.1001	507.0000
23.1093	524.0000
23.1186	494.0000
23.1278	507.0000
23.1370	511.0000
23.1462	536.0000
23.1555	488.0000
23.1647	516.0000
23.1739	495.0000
23.1831	462.0000
23.1924	510.0000
23.2016	506.0000
23.2108	499.0000
23.2200	506.0000
23.2292	543.0000
23.2385	520.0000
23.2477	506.0000
23.2569	495.0000
23.2661	506.0000
23.2754	456.0000
23.2846	501.0000
23.2938	489.0000
23.3030	464.0000
23.3122	490.0000
23.3215	523.0000
23.3307	509.0000
23.3399	526.0000
23.3491	458.0000
23.3584	488.0000
23.3676	514.0000
23.3768	521.0000
23.3860	517.0000
23.3952	495.0000
23.4045	563.0000
23.4137	478.0000
23.4229	479.0000
23.4321	512.0000
23.4414	516.0000
23.4506	506.0000
23.4598	513.0000
23.4690	534.0000
23.4783	451.0000
23.4875	486.0000
23.4967	524.0000
23.5059	484.0000
23.5151	472.0000
23.5244	491.0000
23.5336	491.0000
23.5428	492.0000
23.5520	481.0000
23.5613	530.0000
23.5705	534.0000
23.5797	477.0000
23.5889	487.0000
23.5981	522.0000
23.6074	511.0000
23.6166	519.0000
23.6258	486.0000
23.6350	466.0000
23.6443	540.0000
23.6535	477.0000
23.6627	467.0000
23.6719	478.0000
23.6812	504.0000
23.6904	521.0000
23.6996	461.0000
23.7088	512.0000
23.7180	514.0000
23.7273	466.0000
23.7365	513.0000
23.7457	478.0000
23.7549	515.0000
23.7642	528.0000
23.7734	495.0000
23.7826	524.0000
23.7918	482.0000
23.8010	493.0000
23.8103	510.0000
23.8195	472.0000
23.8287	482.0000
23.8379	486.0000
23.8472	555.0000
23.8564	473.0000
23.8656	487.0000
23.8748	481.0000
23.8841	504.0000
23.8933	475.0000
23.9025	517.0000
23.9117	483.0000
23.9209	509.0000
23.9302	490.0000
23.9394	470.0000
23.9486	490.0000
23.9578	474.0000
23.9671	502.0000
23.9763	504.0000
23.9855	540.0000
23.9947	505.0000
24.0039	532.0000
24.0132	479.0000
24.0224	471.0000
24.0316	503.0000
24.0408	461.0000
24.0501	493.0000
24.0593	505.0000
24.0685	491.0000
24.0777	489.0000
24.0869	471.0000
24.0962	519.0000
24.1054	507.0000
24.1146	503.0000
24.1238	492.0000
24.1331	455.0000
24.1423	543.0000
24.1515	544.0000
24.1607	499.0000
24.1700	509.0000
24.1792	513.0000
24.1884	498.0000
24.1976	558.0000
24.2068	478.0000
24.2161	469.0000
24.2253	488.0000
24.2345	540.0000
24.2437	493.0000
24.2530	501.0000
24.2622	553.0000
24.2714	508.0000
24.2806	524.0000
24.2898	492.0000
24.2991	481.0000
24.3083	471.0000
24.3175	515.0000
24.3267	547.0000
24.3360	497.0000
24.3452	499.0000
24.3544	539.0000
24.3636	457.0000
24.3729	526.0000
24.3821	491.0000
24.3913	518.0000
24.4005	468.0000
24.4097	470.0000
24.4190	501.0000
24.4282	532.0000
24.4374	493.0000
24.4466	522.0000
24.4559	492.0000
24.4651	571.0000
24.4743	526.0000
24.4835	522.0000
24.4927	526.0000
24.5020	540.0000
24.5112	501.0000
24.5204	489.0000
24.5296	477.0000
24.5389	519.0000
24.5481	513.0000
24.5573	497.0000
24.5665	510.0000
24.5757	518.0000
24.5850	520.0000
24.5942	510.0000
24.6034	508.0000
24.6126	512.0000
24.6219	494.0000
24.6311	494.0000
24.6403	505.0000
24.6495	522.0000
24.6588	481.0000
24.6680	476.0000
24.6772	493.0000
24.6864	477.0000
24.6956	533.0000
24.7049	486.0000
24.7141	502.0000
24.7233	535.0000
24.7325	521.0000
24.7418	523.0000
24.7510	527.0000
24.7602	486.0000
24.7694	508.0000
24.7786	523.0000
24.7879	493.0000
24.7971	515.0000
24.8063	530.0000
24.8155	470.0000
24.8248	509.0000
24.8340	509.0000
24.8432	536.0000
24.8524	485.0000
24.8617	466.0000
24.8709	567.0000
24.8801	475.0000
24.8893	534.0000
24.8985	505.0000
24.9078	520.0000
24.9170	527.0000
24.9262	501.0000
24.9354	505.0000
24.9447	564.0000
24.9539	534.0000
24.9631	573.0000
24.9723	650.0000
24.9815	791.0000
24.9908	879.0000
25.0000	1065.0000
25.0092	1131.0000
25.0184	1078.0000
25.0277	873.0000
25.0369	680.0000
25.0461	594.0000
25.0553	589.0000
25.0646	551.0000
25.0738	535.0000
25.0830	507.0000
25.0922	516.0000
25.1014	512.0000
25.1107	544.0000
25.1199	591.0000
25.1291	629.0000
25.1383	679.0000
25.1476	837.0000
25.1568	864.0000
25.1660	822.0000
25.1752	674.0000
25.1844	608.0000
25.1937	564.0000
25.2029	510.0000
25.2121	515.0000
25.2213	518.0000
25.2306	483.0000
25.2398	517.0000
25.2490	493.0000
25.2582	475.0000
25.2674	534.0000
25.2767	495.0000
25.2859	510.0000
25.2951	477.0000
25.3043	528.0000
25.3136	500.0000
25.3228	508.0000
25.3320	501.0000
25.3412	516.0000
25.3505	465.0000
25.3597	544.0000
25.3689	501.0000
25.3781	503.0000
25.3873	549.0000
25.3966	530.0000
25.4058	517.0000
25.4150	513.0000
25.4242	519.0000
25.4335	487.0000
25.4427	523.0000
25.4519	539.0000
25.4611	533.0000
25.4703	499.0000
25.4796	537.0000
25.4888	538.0000
25.4980	535.0000
25.5072	548.0000
25.5165	566.0000
25.5257	520.0000
25.5349	503.0000
25.5441	509.0000
25.5534	493.0000
25.5626	518.0000
25.5718	527.0000
25.5810	496.0000
25.5902	493.0000
25.5995	541.0000
25.6087	546.0000
25.6179	510.0000
25.6271	536.0000
25.6364	518.0000
25.6456	537.0000
25.6548	503.0000
25.6640	512.0000
25.6732	525.0000
25.6825	485.0000
25.6917	519.0000
25.7009	493.0000
25.7101	538.0000
25.7194	562.0000
25.7286	514.0000
25.7378	505.0000
25.7470	492.0000
25.7562	516.0000
25.7655	514.0000
25.7747	527.0000
25.7839	545.0000
25.7931	561.0000
25.8024	514.0000
25.8116	520.0000
25.8208	494.0000
25.8300	576.0000
25.8393	527.0000
25.8485	528.0000
25.8577	497.0000
25.8669	505.0000
25.8761	546.0000
25.8854	521.0000
25.8946	516.0000
25.9038	527.0000
25.9130	503.0000
25.9223	531.0000
25.9315	525.0000
25.9407	542.0000
25.9499	522.0000
25.9591	509.0000
25.9684	494.0000
25.9776	516.0000
25.9868	562.0000
25.9960	519.0000
26.0053	535.0000
26.0145	528.0000
26.0237	561.0000
26.0329	543.0000
26.0422	536.0000
26.0514	515.0000
26.0606	469.0000
26.0698	560.0000
26.0790	561.0000
26.0883	547.0000
26.0975	550.0000
26.1067	546.0000
26.1159	516.0000
26.1252	505.0000
26.1344	525.0000
26.1436	517.0000
26.1528	530.0000
26.1620	547.0000
26.1713	557.0000
26.1805	539.0000
26.1897	526.0000
26.1989	527.0000
26.2082	490.0000
26.2174	508.0000
26.2266	523.0000
26.2358	549.0000
26.2451	513.0000
26.2543	511.0000
26.2635	541.0000
26.2727	520.0000
26.2819	571.0000
26.2912	557.0000
26.3004	548.0000
26.3096	508.0000
26.3188	580.0000
26.3281	547.0000
26.3373	529.0000
26.3465	518.0000
26.3557	542.0000
26.3649	547.0000
26.3742	563.0000
26.3834	504.0000
26.3926	559.0000
26.4018	558.0000
26.4111	537.0000
26.4203	519.0000
26.4295	545.0000
26.4387	539.0000
26.4479	501.0000
26.4572	498.0000
26.4664	518.0000
26.4756	495.0000
26.4848	494.0000
26.4941	513.0000
26.5033	532.0000
26.5125	549.0000
26.5217	532.0000
26.5310	530.0000
26.5402	530.0000
26.5494	541.0000
26.5586	534.0000
26.5678	574.0000
26.5771	566.0000
26.5863	527.0000
26.5955	559.0000
26.6047	523.0000
26.6140	527.0000
26.6232	524.0000
26.6324	530.0000
26.6416	563.0000
26.6508	580.0000
26.6601	579.0000
26.6693	524.0000
26.6785	568.0000
26.6877	518.0000
26.6970	559.0000
26.7062	567.0000
26.7154	504.0000
26.7246	564.0000
26.7339	532.0000
26.7431	579.0000
26.7523	570.0000
26.7615	539.0000
26.7707	519.0000
26.7800	567.0000
26.7892	556.0000
26.7984	529.0000
26.8076	586.0000
26.8169	529.0000
26.8261	535.0000
26.8353	553.0000
26.8445	518.0000
26.8537	574.0000
26.8630	564.0000
26.8722	551.0000
26.8814	550.0000
26.8906	566.0000
26.8999	522.0000
26.9091	543.0000
26.9183	538.0000
26.9275	615.0000
26.9367	514.0000
26.9460	530.0000
26.9552	526.0000
26.9644	596.0000
26.9736	569.0000
26.9829	503.0000
26.9921	567.0000
27.0013	549.0000
27.0105	537.0000
27.0198	514.0000
27.0290	571.0000
27.0382	583.0000
27.0474	555.0000
27.0566	508.0000
27.0659	534.0000
27.0751	514.0000
27.0843	531.0000
27.0935	581.0000
27.1028	585.0000
27.1120	558.0000
27.1212	538.0000
27.1304	557.0000
27.1396	528.0000
27.1489	562.0000
27.1581	549.0000
27.1673	562.0000
27.1765	529.0000
27.1858	555.0000
27.1950	562.0000
27.2042	594.0000
27.2134	544.0000
27.2227	587.0000
27.2319	607.0000
27.2411	575.0000
27.2503	503.0000
27.2595	577.0000
27.2688	565.0000
27.2780	564.0000
27.2872	557.0000
27.2964	526.0000
27.3057	562.0000
27.3149	554.0000
27.3241	573.0000
27.3333	586.0000
27.3425	548.0000
27.3518	542.0000
27.3610	543.0000
27.3702	562.0000
27.3794	556.0000
27.3887	534.0000
27.3979	545.0000
27.4071	552.0000
27.4163	563.0000
27.4256	529.0000
27.4348	559.0000
27.4440	568.0000
27.4532	551.0000
27.4624	537.0000
27.4717	555.0000
27.4809	557.0000
27.4901	565.0000
27.4993	563.0000
27.5086	568.0000
27.5178	543.0000
27.5270	577.0000
27.5362	556.0000
27.5454	562.0000
27.5547	571.0000
27.5639	554.0000
27.5731	574.0000
27.5823	559.0000
27.5916	554.0000
27.6008	556.0000
27.6100	564.0000
27.6192	612.0000
27.6284	546.0000
27.6377	554.0000
27.6469	566.0000
27.6561	543.0000
27.6653	567.0000
27.6746	581.0000
27.6838	532.0000
27.6930	572.0000
27.7022	561.0000
27.7115	566.0000
27.7207	555.0000
27.7299	574.0000
27.7391	546.0000
27.7483	597.0000
27.7576	540.0000
27.7668	569.0000
27.7760	544.0000
27.7852	559.0000
27.7945	591.0000
27.8037	594.0000
27.8129	530.0000
27.8221	574.0000
27.8313	586.0000
27.8406	575.0000
27.8498	570.0000
27.8590	572.0000
27.8682	587.0000
27.8775	553.0000
27.8867	588.0000
27.8959	590.0000
27.9051	547.0000
27.9144	562.0000
27.9236	545.0000
27.9328	541.0000
27.9420	549.0000
27.9512	572.0000
27.9605	550.0000
27.9697	576.0000
27.9789	617.0000
27.9881	588.0000
27.9974	621.0000
28.0066	556.0000
28.0158	582.0000
28.0250	626.0000
28.0342	544.0000
28.0435	580.0000
28.0527	556.0000
28.0619	569.0000
28.0711	544.0000
28.0804	572.0000
28.0896	570.0000
28.0988	562.0000
28.1080	523.0000
28.1172	570.0000
28.1265	548.0000
28.1357	579.0000
28.1449	572.0000
28.1541	547.0000
28.1634	610.0000
28.1726	603.0000
28.1818	586.0000
28.1910	585.0000
28.2003	576.0000
28.2095	550.0000
28.2187	566.0000
28.2279	571.0000
28.2371	592.0000
28.2464	542.0000
28.2556	590.0000
28.2648	587.0000
28.2740	568.0000
28.2833	531.0000
28.2925	608.0000
28.3017	605.0000
28.3109	609.0000
28.3201	564.0000
28.3294	602.0000
28.3386	606.0000
28.3478	590.0000
28.3570	561.0000
28.3663	555.0000
28.3755	589.0000
28.3847	654.0000
28.3939	544.0000
28.4032	556.0000
28.4124	580.0000
28.4216	543.0000
28.4308	567.0000
28.4400	545.0000
28.4493	549.0000
28.4585	538.0000
28.4677	574.0000
28.4769	564.0000
28.4862	553.0000
28.4954	605.0000
28.5046	589.0000
28.5138	616.0000
28.5230	567.0000
28.5323	554.0000
28.5415	585.0000
28.5507	563.0000
28.5599	587.0000
28.5692	591.0000
28.5784	550.0000
28.5876	570.0000
28.5968	581.0000
28.6061	596.0000
28.6153	624.0000
28.6245	596.0000
28.6337	581.0000
28.6429	587.0000
28.6522	581.0000
28.6614	626.0000
28.6706	543.0000
28.6798	598.0000
28.6891	571.0000
28.6983	593.0000
28.7075	572.0000
28.7167	595.0000
28.7259	600.0000
28.7352	536.0000
28.7444	554.0000
28.7536	571.0000
28.7628	592.0000
28.7721	566.0000
28.7813	574.0000
28.7905	580.0000
28.7997	569.0000
28.8089	560.0000
28.8182	574.0000
28.8274	601.0000
28.8366	614.0000
28.8458	588.0000
28.8551	559.0000
28.8643	574.0000
28.8735	592.0000
28.8827	608.0000
28.8920	581.0000
28.9012	583.0000
28.9104	557.0000
28.9196	582.0000
28.9288	546.0000
28.9381	593.0000
28.9473	590.0000
28.9565	523.0000
28.9657	593.0000
28.9750	565.0000
28.9842	554.0000
28.9934	558.0000
29.0026	594.0000
29.0118	564.0000
29.0211	594.0000
29.0303	580.0000
29.0395	539.0000
29.0487	598.0000
29.0580	585.0000
29.0672	541.0000
29.0764	583.0000
29.0856	599.0000
29.0949	599.0000
29.1041	559.0000
29.1133	585.0000
29.1225	595.0000
29.1317	644.0000
29.1410	576.0000
29.1502	600.0000
29.1594	536.0000
29.1686	605.0000
29.1779	516.0000
29.1871	564.0000
29.1963	585.0000
29.2055	490.0000
29.2147	553.0000
29.2240	652.0000
29.2332	576.0000
29.2424	556.0000
29.2516	592.0000
29.2609	582.0000
29.2701	552.0000
29.2793	575.0000
29.2885	610.0000
29.2977	584.0000
29.3070	571.0000
29.3162	568.0000
29.3254	564.0000
29.3346	563.0000
29.3439	610.0000
29.3531	544.0000
29.3623	582.0000
29.3715	559.0000
29.3808	582.0000
29.3900	599.0000
29.3992	557.0000
29.4084	580.0000
29.4176	591.0000
29.4269	582.0000
29.4361	580.0000
29.4453	570.0000
29.4545	630.0000
29.4638	570.0000
29.4730	588.0000
29.4822	532.0000
29.4914	592.0000
29.5006	617.0000
29.5099	618.0000
29.5191	589.0000
29.5283	592.0000
29.5375	589.0000
29.5468	578.0000
29.5560	593.0000
29.5652	606.0000
29.5744	561.0000
29.5837	590.0000
29.5929	528.0000
29.6021	612.0000
29.6113	553.0000
29.6205	542.0000
29.6298	584.0000
29.6390	564.0000
29.6482	618.0000
29.6574	568.0000
29.6667	576.0000
29.6759	562.0000
29.6851	590.0000
29.6943	531.0000
29.7035	592.0000
29.7128	581.0000
29.7220	545.0000
29.7312	570.0000
29.7404	557.0000
29.7497	591.0000
29.7589	629.0000
29.7681	617.0000
29.7773	618.0000
29.7866	579.0000
29.7958	557.0000
29.8050	590.0000
29.8142	645.0000
29.8234	540.0000
29.8327	573.0000
29.8419	567.0000
29.8511	571.0000
29.8603	615.0000
29.8696	564.0000
29.8788	613.0000
29.8880	574.0000
29.8972	640.0000
29.9064	562.0000
29.9157	553.0000
29.9249	558.0000
29.9341	598.0000
29.9433	592.0000
29.9526	594.0000
29.9618	552.0000
29.9710	593.0000
29.9802	553.0000
29.9894	579.0000
29.9987	603.0000
30.0079	563.0000
30.0171	553.0000
30.0263	578.0000
30.0356	563.0000
30.0448	575.0000
30.0540	589.0000
30.0632	601.0000
30.0725	561.0000
30.0817	581.0000
30.0909	629.0000
30.1001	614.0000
30.1093	558.0000
30.1186	563.0000
30.1278	582.0000
30.1370	606.0000
30.1462	605.0000
30.1555	610.0000
30.1647	600.0000
30.1739	619.0000
30.1831	537.0000
30.1923	587.0000
30.2016	568.0000
30.2108	559.0000
30.2200	610.0000
30.2292	616.0000
30.2385	573.0000
30.2477	621.0000
30.2569	704.0000
30.2661	762.0000
30.2754	948.0000
30.2846	1196.0000
30.2938	1231.0000
30.3030	1190.0000
30.3122	794.0000
30.3215	687.0000
30.3307	702.0000
30.3399	604.0000
30.3491	591.0000
30.3584	553.0000
30.3676	577.0000
30.3768	621.0000
30.3860	614.0000
30.3952	609.0000
30.4045	569.0000
30.4137	602.0000
30.4229	599.0000
30.4321	604.0000
30.4414	614.0000
30.4506	657.0000
30.4598	819.0000
30.4690	916.0000
30.4782	972.0000
30.4875	857.0000
30.4967	676.0000
30.5059	629.0000
30.5151	623.0000
30.5244	589.0000
30.5336	539.0000
30.5428	600.0000
30.5520	579.0000
30.5613	568.0000
30.5705	595.0000
30.5797	621.0000
30.5889	621.0000
30.5981	595.0000
30.6074	589.0000
30.6166	535.0000
30.6258	578.0000
30.6350	557.0000
30.6443	580.0000
30.6535	615.0000
30.6627	593.0000
30.6719	598.0000
30.6811	588.0000
30.6904	596.0000
30.6996	561.0000
30.7088	532.0000
30.7180	549.0000
30.7273	555.0000
30.7365	598.0000
30.7457	595.0000
30.7549	571.0000
30.7642	517.0000
30.7734	558.0000
30.7826	565.0000
30.7918	607.0000
30.8010	578.0000
30.8103	582.0000
30.8195	576.0000
30.8287	551.0000
30.8379	566.0000
30.8472	574.0000
30.8564	598.0000
30.8656	587.0000
30.8748	586.0000
30.8840	575.0000
30.8933	541.0000
30.9025	587.0000
30.9117	565.0000
30.9209	598.0000
30.9302	557.0000
30.9394	594.0000
30.9486	596.0000
30.9578	521.0000
30.9671	581.0000
30.9763	590.0000
30.9855	583.0000
30.9947	575.0000
31.0039	558.0000
31.0132	568.0000
31.0224	551.0000
31.0316	592.0000
31.0408	555.0000
31.0501	571.0000
31.0593	568.0000
31.0685	570.0000
31.0777	551.0000
31.0869	557.0000
31.0962	566.0000
31.1054	551.0000
31.1146	544.0000
31.1238	558.0000
31.1331	517.0000
31.1423	560.0000
31.1515	615.0000
31.1607	545.0000
31.1699	561.0000
31.1792	573.0000
31.1884	582.0000
31.1976	596.0000
31.2068	591.0000
31.2161	562.0000
31.2253	536.0000
31.2345	573.0000
31.2437	557.0000
31.2530	539.0000
31.2622	583.0000
31.2714	544.0000
31.2806	502.0000
31.2898	593.0000
31.2991	561.0000
31.3083	564.0000
31.3175	596.0000
31.3267	567.0000
31.3360	549.0000
31.3452	575.0000
31.3544	573.0000
31.3636	601.0000
31.3728	545.0000
31.3821	614.0000
31.3913	543.0000
31.4005	566.0000
31.4097	556.0000
31.4190	579.0000
31.4282	559.0000
31.4374	584.0000
31.4466	573.0000
31.4559	580.0000
31.4651	611.0000
31.4743	553.0000
31.4835	556.0000
31.4927	551.0000
31.5020	597.0000
31.5112	561.0000
31.5204	578.0000
31.5296	526.0000
31.5389	579.0000
31.5481	605.0000
31.5573	585.0000
31.5665	560.0000
31.5757	557.0000
31.5850	573.0000
31.5942	619.0000
31.6034	599.0000
31.6126	570.0000
31.6219	536.0000
31.6311	583.0000
31.6403	520.0000
31.6495	566.0000
31.6587	527.0000
31.6680	596.0000
31.6772	572.0000
31.6864	591.0000
31.6956	533.0000
31.7049	620.0000
31.7141	587.0000
31.7233	585.0000
31.7325	585.0000
31.7418	590.0000
31.7510	685.0000
31.7602	575.0000
31.7694	576.0000
31.7786	588.0000
31.7879	574.0000
31.7971	622.0000
31.8063	596.0000
31.8155	585.0000
31.8248	587.0000
31.8340	599.0000
31.8432	538.0000
31.8524	598.0000
31.8616	575.0000
31.8709	597.0000
31.8801	549.0000
31.8893	595.0000
31.8985	535.0000
31.9078	597.0000
31.9170	576.0000
31.9262	543.0000
31.9354	586.0000
31.9447	588.0000
31.9539	589.0000
31.9631	566.0000
31.9723	585.0000
31.9815	573.0000
31.9908	540.0000
32.0000	543.0000
32.0092	565.0000
32.0184	551.0000
32.0277	597.0000
32.0369	592.0000
32.0461	606.0000
32.0553	549.0000
32.0645	579.0000
32.0738	553.0000
32.0830	588.0000
32.0922	576.0000
32.1014	615.0000
32.1107	571.0000
32.1199	569.0000
32.1291	616.0000
32.1383	552.0000
32.1476	594.0000
32.1568	597.0000
32.1660	630.0000
32.1752	528.0000
32.1844	505.0000
32.1937	567.0000
32.2029	541.0000
32.2121	603.0000
32.2213	579.0000
32.2306	574.0000
32.2398	563.0000
32.2490	574.0000
32.2582	513.0000
32.2674	571.0000
32.2767	565.0000
32.2859	576.0000
32.2951	547.0000
32.3043	564.0000
32.3136	552.0000
32.3228	532.0000
32.3320	550.0000
32.3412	555.0000
32.3504	577.0000
32.3597	593.0000
32.3689	554.0000
32.3781	572.0000
32.3873	613.0000
32.3966	567.0000
32.4058	573.0000
32.4150	551.0000
32.4242	564.0000
32.4335	575.0000
32.4427	556.0000
32.4519	591.0000
32.4611	523.0000
32.4703	574.0000
32.4796	535.0000
32.4888	592.0000
32.4980	581.0000
32.5072	595.0000
32.5165	598.0000
32.5257	592.0000
32.5349	593.0000
32.5441	539.0000
32.5533	575.0000
32.5626	585.0000
32.5718	539.0000
32.5810	568.0000
32.5902	561.0000
32.5995	563.0000
32.6087	555.0000
32.6179	605.0000
32.6271	591.0000
32.6364	562.0000
32.6456	550.0000
32.6548	564.0000
32.6640	565.0000
32.6732	570.0000
32.6825	571.0000
32.6917	583.0000
32.7009	570.0000
32.7101	575.0000
32.7194	588.0000
32.7286	618.0000
32.7378	541.0000
32.7470	551.0000
32.7562	575.0000
32.7655	562.0000
32.7747	581.0000
32.7839	557.0000
32.7931	590.0000
32.8024	574.0000
32.8116	585.0000
32.8208	592.0000
32.8300	548.0000
32.8392	553.0000
32.8485	558.0000
32.8577	578.0000
32.8669	553.0000
32.8761	603.0000
32.8854	577.0000
32.8946	531.0000
32.9038	577.0000
32.9130	564.0000
32.9223	606.0000
32.9315	602.0000
32.9407	589.0000
32.9499	581.0000
32.9591	547.0000
32.9684	521.0000
32.9776	592.0000
32.9868	609.0000
32.9960	607.0000
33.0053	584.0000
33.0145	598.0000
33.0237	633.0000
33.0329	628.0000
33.0421	665.0000
33.0514	776.0000
33.0606	837.0000
33.0698	966.0000
33.0790	976.0000
33.0883	876.0000
33.0975	778.0000
33.1067	645.0000
33.1159	592.0000
33.1252	580.0000
33.1344	645.0000
33.1436	568.0000
33.1528	556.0000
33.1620	587.0000
33.1713	620.0000
33.1805	617.0000
33.1897	530.0000
33.1989	577.0000
33.2082	619.0000
33.2174	560.0000
33.2266	607.0000
33.2358	605.0000
33.2450	658.0000
33.2543	677.0000
33.2635	744.0000
33.2727	787.0000
33.2819	743.0000
33.2912	733.0000
33.3004	699.0000
33.3096	610.0000
33.3188	593.0000
33.3281	599.0000
33.3373	595.0000
33.3465	553.0000
33.3557	584.0000
33.3649	604.0000
33.3742	622.0000
33.3834	547.0000
33.3926	552.0000
33.4018	612.0000
33.4111	562.0000
33.4203	530.0000
33.4295	539.0000
33.4387	594.0000
33.4479	564.0000
33.4572	547.0000
33.4664	545.0000
33.4756	552.0000
33.4848	591.0000
33.4941	521.0000
33.5033	520.0000
33.5125	559.0000
33.5217	543.0000
33.5309	563.0000
33.5402	588.0000
33.5494	568.0000
33.5586	608.0000
33.5678	545.0000
33.5771	592.0000
33.5863	548.0000
33.5955	520.0000
33.6047	607.0000
33.6140	561.0000
33.6232	544.0000
33.6324	583.0000
33.6416	598.0000
33.6508	560.0000
33.6601	568.0000
33.6693	599.0000
33.6785	596.0000
33.6877	546.0000
33.6970	554.0000
33.7062	547.0000
33.7154	531.0000
33.7246	569.0000
33.7338	575.0000
33.7431	535.0000
33.7523	517.0000
33.7615	569.0000
33.7707	572.0000
33.7800	582.0000
33.7892	540.0000
33.7984	555.0000
33.8076	531.0000
33.8169	564.0000
33.8261	565.0000
33.8353	571.0000
33.8445	568.0000
33.8537	556.0000
33.8630	510.0000
33.8722	550.0000
33.8814	553.0000
33.8906	531.0000
33.8999	558.0000
33.9091	583.0000
33.9183	543.0000
33.9275	558.0000
33.9367	552.0000
33.9460	558.0000
33.9552	527.0000
33.9644	530.0000
33.9736	558.0000
33.9829	560.0000
33.9921	519.0000
34.0013	568.0000
34.0105	529.0000
34.0197	532.0000
34.0290	531.0000
34.0382	547.0000
34.0474	546.0000
34.0566	530.0000
34.0659	567.0000
34.0751	530.0000
34.0843	596.0000
34.0935	532.0000
34.1028	558.0000
34.1120	609.0000
34.1212	510.0000
34.1304	535.0000
34.1396	566.0000
34.1489	545.0000
34.1581	535.0000
34.1673	588.0000
34.1765	573.0000
34.1858	540.0000
34.1950	555.0000
34.2042	521.0000
34.2134	558.0000
34.2226	552.0000
34.2319	531.0000
34.2411	520.0000
34.2503	541.0000
34.2595	536.0000
34.2688	564.0000
34.2780	545.0000
34.2872	552.0000
34.2964	607.0000
34.3057	555.0000
34.3149	561.0000
34.3241	557.0000
34.3333	557.0000
34.3425	566.0000
34.3518	522.0000
34.3610	554.0000
34.3702	533.0000
34.3794	515.0000
34.3887	578.0000
34.3979	531.0000
34.4071	594.0000
34.4163	536.0000
34.4255	590.0000
34.4348	540.0000
34.4440	555.0000
34.4532	565.0000
34.4624	545.0000
34.4717	512.0000
34.4809	559.0000
34.4901	567.0000
34.4993	513.0000
34.5086	508.0000
34.5178	545.0000
34.5270	516.0000
34.5362	528.0000
34.5454	523.0000
34.5547	538.0000
34.5639	543.0000
34.5731	518.0000
34.5823	494.0000
34.5916	576.0000
34.6008	521.0000
34.6100	546.0000
34.6192	502.0000
34.6284	516.0000
34.6377	527.0000
34.6469	500.0000
34.6561	519.0000
34.6653	534.0000
34.6746	508.0000
34.6838	510.0000
34.6930	540.0000
34.7022	530.0000
34.7114	499.0000
34.7207	505.0000
34.7299	539.0000
34.7391	500.0000
34.7483	501.0000
34.7576	514.0000
34.7668	512.0000
34.7760	517.0000
34.7852	495.0000
34.7945	487.0000
34.8037	515.0000
34.8129	497.0000
34.8221	486.0000
34.8313	494.0000
34.8406	500.0000
34.8498	476.0000
34.8590	492.0000
34.8682	546.0000
34.8775	510.0000
34.8867	491.0000
34.8959	482.0000
34.9051	534.0000
34.9143	511.0000
34.9236	502.0000
34.9328	495.0000
34.9420	492.0000
34.9512	510.0000
34.9605	508.0000
34.9697	529.0000
34.9789	493.0000
34.9881	503.0000
34.9974	512.0000
35.0066	532.0000
35.0158	538.0000
35.0250	490.0000
35.0342	525.0000
35.0435	509.0000
35.0527	494.0000
35.0619	499.0000
35.0711	487.0000
35.0804	486.0000
35.0896	503.0000
35.0988	508.0000
35.1080	489.0000
35.1172	490.0000
35.1265	483.0000
35.1357	477.0000
35.1449	493.0000
35.1541	482.0000
35.1634	492.0000
35.1726	452.0000
35.1818	482.0000
35.1910	497.0000
35.2002	497.0000
35.2095	485.0000
35.2187	527.0000
35.2279	522.0000
35.2371	484.0000
35.2464	489.0000
35.2556	487.0000
35.2648	459.0000
35.2740	513.0000
35.2833	511.0000
35.2925	486.0000
35.3017	480.0000
35.3109	455.0000
35.3201	497.0000
35.3294	511.0000
35.3386	470.0000
35.3478	461.0000
35.3570	475.0000
35.3663	466.0000
35.3755	459.0000
35.3847	449.0000
35.3939	513.0000
35.4031	490.0000
35.4124	428.0000
35.4216	485.0000
35.4308	465.0000
35.4400	426.0000
35.4493	464.0000
35.4585	437.0000
35.4677	450.0000
35.4769	441.0000
35.4862	458.0000
35.4954	473.0000
35.5046	450.0000
35.5138	449.0000
35.5230	480.0000
35.5323	436.0000
35.5415	493.0000
35.5507	471.0000
35.5599	478.0000
35.5692	448.0000
35.5784	482.0000
35.5876	451.0000
35.5968	439.0000
35.6060	466.0000
35.6153	460.0000
35.6245	443.0000
35.6337	453.0000
35.6429	454.0000
35.6522	480.0000
35.6614	448.0000
35.6706	432.0000
35.6798	414.0000
35.6891	461.0000
35.6983	421.0000
35.7075	449.0000
35.7167	459.0000
35.7259	459.0000
35.7352	446.0000
35.7444	439.0000
35.7536	431.0000
35.7628	457.0000
35.7721	457.0000
35.7813	417.0000
35.7905	393.0000
35.7997	436.0000
35.8089	447.0000
35.8182	407.0000
35.8274	450.0000
35.8366	428.0000
35.8458	430.0000
35.8551	458.0000
35.8643	413.0000
35.8735	390.0000
35.8827	404.0000
35.8919	406.0000
35.9012	441.0000
35.9104	439.0000
35.9196	391.0000
35.9288	419.0000
35.9381	437.0000
35.9473	408.0000
35.9565	408.0000
35.9657	426.0000
35.9750	403.0000
35.9842	425.0000
35.9934	420.0000
36.0026	418.0000
36.0118	409.0000
36.0211	410.0000
36.0303	418.0000
36.0395	402.0000
36.0487	390.0000
36.0580	422.0000
36.0672	403.0000
36.0764	420.0000
36.0856	404.0000
36.0948	401.0000
36.1041	395.0000
36.1133	413.0000
36.1225	424.0000
36.1317	422.0000
36.1410	434.0000
36.1502	417.0000
36.1594	388.0000
36.1686	372.0000
36.1779	415.0000
36.1871	418.0000
36.1963	399.0000
36.2055	415.0000
36.2147	388.0000
36.2240	445.0000
36.2332	391.0000
36.2424	378.0000
36.2516	389.0000
36.2609	446.0000
36.2701	387.0000
36.2793	425.0000
36.2885	419.0000
36.2977	375.0000
36.3070	394.0000
36.3162	356.0000
36.3254	406.0000
36.3346	361.0000
36.3439	351.0000
36.3531	384.0000
36.3623	415.0000
36.3715	406.0000
36.3807	411.0000
36.3900	385.0000
36.3992	384.0000
36.4084	408.0000
36.4176	385.0000
36.4269	392.0000
36.4361	373.0000
36.4453	377.0000
36.4545	390.0000
36.4638	364.0000
36.4730	381.0000
36.4822	363.0000
36.4914	369.0000
36.5006	376.0000
36.5099	385.0000
36.5191	358.0000
36.5283	370.0000
36.5375	400.0000
36.5468	379.0000
36.5560	354.0000
36.5652	407.0000
36.5744	376.0000
36.5836	389.0000
36.5929	360.0000
36.6021	349.0000
36.6113	393.0000
36.6205	397.0000
36.6298	360.0000
36.6390	358.0000
36.6482	416.0000
36.6574	381.0000
36.6667	399.0000
36.6759	367.0000
36.6851	364.0000
36.6943	346.0000
36.7035	378.0000
36.7128	372.0000
36.7220	368.0000
36.7312	352.0000
36.7404	380.0000
36.7497	368.0000
36.7589	378.0000
36.7681	374.0000
36.7773	335.0000
36.7865	353.0000
36.7958	377.0000
36.8050	365.0000
36.8142	362.0000
36.8234	359.0000
36.8327	398.0000
36.8419	370.0000
36.8511	361.0000
36.8603	362.0000
36.8696	366.0000
36.8788	315.0000
36.8880	366.0000
36.8972	347.0000
36.9064	357.0000
36.9157	353.0000
36.9249	345.0000
36.9341	345.0000
36.9433	348.0000
36.9526	352.0000
36.9618	364.0000
36.9710	372.0000
36.9802	326.0000
36.9894	366.0000
36.9987	374.0000
37.0079	369.0000
37.0171	360.0000
37.0263	366.0000
37.0356	394.0000
37.0448	377.0000
37.0540	381.0000
37.0632	356.0000
37.0724	366.0000
37.0817	351.0000
37.0909	333.0000
37.1001	343.0000
37.1093	372.0000
37.1186	327.0000
37.1278	323.0000
37.1370	298.0000
37.1462	346.0000
37.1555	371.0000
37.1647	347.0000
37.1739	362.0000
37.1831	343.0000
37.1923	353.0000
37.2016	336.0000
37.2108	318.0000
37.2200	351.0000
37.2292	355.0000
37.2385	322.0000
37.2477	377.0000
37.2569	342.0000
37.2661	355.0000
37.2753	325.0000
37.2846	323.0000
37.2938	337.0000
37.3030	321.0000
37.3122	336.0000
37.3215	324.0000
37.3307	335.0000
37.3399	362.0000
37.3491	322.0000
37.3584	358.0000
37.3676	354.0000
37.3768	305.0000
37.3860	312.0000
37.3952	335.0000
37.4045	335.0000
37.4137	348.0000
37.4229	372.0000
37.4321	310.0000
37.4414	325.0000
37.4506	366.0000
37.4598	348.0000
37.4690	331.0000
37.4782	338.0000
37.4875	321.0000
37.4967	339.0000
37.5059	335.0000
37.5151	320.0000
37.5244	328.0000
37.5336	330.0000
37.5428	325.0000
37.5520	340.0000
37.5612	322.0000
37.5705	328.0000
37.5797	336.0000
37.5889	329.0000
37.5981	319.0000
37.6074	340.0000
37.6166	339.0000
37.6258	304.0000
37.6350	332.0000
37.6443	312.0000
37.6535	338.0000
37.6627	324.0000
37.6719	310.0000
37.6811	292.0000
37.6904	320.0000
37.6996	314.0000
37.7088	397.0000
37.7180	357.0000
37.7273	305.0000
37.7365	322.0000
37.7457	323.0000
37.7549	323.0000
37.7641	343.0000
37.7734	286.0000
37.7826	309.0000
37.7918	314.0000
37.8010	318.0000
37.8103	338.0000
37.8195	322.0000
37.8287	324.0000
37.8379	323.0000
37.8472	296.0000
37.8564	284.0000
37.8656	328.0000
37.8748	305.0000
37.8840	314.0000
37.8933	304.0000
37.9025	321.0000
37.9117	307.0000
37.9209	317.0000
37.9302	290.0000
37.9394	333.0000
37.9486	324.0000
37.9578	315.0000
37.9670	326.0000
37.9763	284.0000
37.9855	295.0000
37.9947	319.0000
38.0039	328.0000
38.0132	312.0000
38.0224	308.0000
38.0316	315.0000
38.0408	325.0000
38.0501	280.0000
38.0593	306.0000
38.0685	284.0000
38.0777	311.0000
38.0869	318.0000
38.0962	295.0000
38.1054	310.0000
38.1146	302.0000
38.1238	330.0000
38.1331	289.0000
38.1423	303.0000
38.1515	310.0000
38.1607	332.0000
38.1699	338.0000
38.1792	276.0000
38.1884	304.0000
38.1976	303.0000
38.2068	292.0000
38.2161	289.0000
38.2253	321.0000
38.2345	294.0000
38.2437	271.0000
38.2529	333.0000
38.2622	369.0000
38.2714	328.0000
38.2806	310.0000
38.2898	283.0000
38.2991	288.0000
38.3083	335.0000
38.3175	323.0000
38.3267	298.0000
38.3360	287.0000
38.3452	311.0000
38.3544	309.0000
38.3636	305.0000
38.3728	291.0000
38.3821	337.0000
38.3913	333.0000
38.4005	325.0000
38.4097	289.0000
38.4190	275.0000
38.4282	317.0000
38.4374	309.0000
38.4466	294.0000
38.4558	307.0000
38.4651	291.0000
38.4743	305.0000
38.4835	298.0000
38.4927	301.0000
38.5020	303.0000
38.5112	307.0000
38.5204	326.0000
38.5296	304.0000
38.5389	334.0000
38.5481	304.0000
38.5573	285.0000
38.5665	332.0000
38.5757	277.0000
38.5850	309.0000
38.5942	279.0000
38.6034	300.0000
38.6126	311.0000
38.6219	285.0000
38.6311	300.0000
38.6403	287.0000
38.6495	321.0000
38.6587	297.0000
38.6680	293.0000
38.6772	313.0000
38.6864	273.0000
38.6956	288.0000
38.7049	308.0000
38.7141	305.0000
38.7233	275.0000
38.7325	319.0000
38.7417	314.0000
38.7510	331.0000
38.7602	273.0000
38.7694	295.0000
38.7786	332.0000
38.7879	296.0000
38.7971	299.0000
38.8063	302.0000
38.8155	319.0000
38.8248	308.0000
38.8340	287.0000
38.8432	299.0000
38.8524	324.0000
38.8616	305.0000
38.8709	308.0000
38.8801	278.0000
38.8893	264.0000
38.8985	311.0000
38.9078	325.0000
38.9170	282.0000
38.9262	294.0000
38.9354	288.0000
38.9446	300.0000
38.9539	335.0000
38.9631	290.0000
38.9723	266.0000
38.9815	319.0000
38.9908	309.0000
39.0000	289.0000
39.0092	296.0000
39.0184	315.0000
39.0277	310.0000
39.0369	300.0000
39.0461	297.0000
39.0553	314.0000
39.0645	313.0000
39.0738	288.0000
39.0830	268.0000
39.0922	286.0000
39.1014	281.0000
39.1107	324.0000
39.1199	289.0000
39.1291	326.0000
39.1383	298.0000
39.1475	285.0000
39.1568	283.0000
39.1660	309.0000
39.1752	282.0000
39.1844	314.0000
39.1937	296.0000
39.2029	296.0000
39.2121	302.0000
39.2213	273.0000
39.2306	292.0000
39.2398	298.0000
39.2490	298.0000
39.2582	271.0000
39.2674	282.0000
39.2767	306.0000
39.2859	313.0000
39.2951	299.0000
39.3043	301.0000
39.3136	264.0000
39.3228	279.0000
39.3320	337.0000
39.3412	291.0000
39.3504	295.0000
39.3597	283.0000
39.3689	326.0000
39.3781	305.0000
39.3873	292.0000
39.3966	315.0000
39.4058	310.0000
39.4150	290.0000
39.4242	307.0000
39.4334	280.0000
39.4427	323.0000
39.4519	274.0000
39.4611	293.0000
39.4703	306.0000
39.4796	282.0000
39.4888	294.0000
39.4980	282.0000
39.5072	268.0000
39.5165	317.0000
39.5257	287.0000
39.5349	296.0000
39.5441	271.0000
39.5533	274.0000
39.5626	289.0000
39.5718	307.0000
39.5810	294.0000
39.5902	263.0000
39.5995	281.0000
39.6087	293.0000
39.6179	301.0000
39.6271	286.0000
39.6363	273.0000
39.6456	314.0000
39.6548	294.0000
39.6640	301.0000
39.6732	297.0000
39.6825	293.0000
39.6917	305.0000
39.7009	287.0000
39.7101	271.0000
39.7194	281.0000
39.7286	275.0000
39.7378	281.0000
39.7470	284.0000
39.7562	281.0000
39.7655	286.0000
39.7747	297.0000
39.7839	292.0000
39.7931	299.0000
39.8024	285.0000
39.8116	319.0000
39.8208	295.0000
39.8300	278.0000
39.8392	289.0000
39.8485	271.0000
39.8577	282.0000
39.8669	304.0000
39.8761	276.0000
39.8854	279.0000
39.8946	292.0000
39.9038	277.0000
39.9130	293.0000
39.9222	304.0000
39.9315	304.0000
39.9407	291.0000
39.9499	297.0000
39.9591	284.0000
39.9684	275.0000
39.9776	273.0000
39.9868	301.0000
39.9960	289.0000
40.0053	324.0000
40.0145	278.0000
40.0237	306.0000
40.0329	317.0000
40.0421	284.0000
40.0514	275.0000
40.0606	303.0000
40.0698	297.0000
40.0790	259.0000
40.0883	289.0000
40.0975	279.0000
40.1067	267.0000
40.1159	316.0000
40.1251	294.0000
40.1344	261.0000
40.1436	275.0000
40.1528	275.0000
40.1620	308.0000
40.1713	266.0000
40.1805	309.0000
40.1897	291.0000
40.1989	287.0000
40.2082	272.0000
40.2174	317.0000
40.2266	301.0000
40.2358	273.0000
40.2450	266.0000
40.2543	287.0000
40.2635	242.0000
40.2727	310.0000
40.2819	289.0000
40.2912	276.0000
40.3004	307.0000
40.3096	277.0000
40.3188	302.0000
40.3280	306.0000
40.3373	284.0000
40.3465	249.0000
40.3557	263.0000
40.3649	267.0000
40.3742	290.0000
40.3834	271.0000
40.3926	279.0000
40.4018	247.0000
40.4111	293.0000
40.4203	248.0000
40.4295	309.0000
40.4387	284.0000
40.4479	301.0000
40.4572	299.0000
40.4664	277.0000
40.4756	331.0000
40.4848	282.0000
40.4941	288.0000
40.5033	302.0000
40.5125	304.0000
40.5217	286.0000
40.5309	295.0000
40.5402	302.0000
40.5494	298.0000
40.5586	282.0000
40.5678	264.0000
40.5771	265.0000
40.5863	300.0000
40.5955	278.0000
40.6047	286.0000
40.6139	291.0000
40.6232	313.0000
40.6324	288.0000
40.6416	304.0000
40.6508	321.0000
40.6601	301.0000
40.6693	289.0000
40.6785	293.0000
40.6877	315.0000
40.6970	302.0000
40.7062	325.0000
40.7154	258.0000
40.7246	300.0000
40.7338	295.0000
40.7431	257.0000
40.7523	288.0000
40.7615	294.0000
40.7707	295.0000
40.7800	309.0000
40.7892	272.0000
40.7984	303.0000
40.8076	286.0000
40.8168	284.0000
40.8261	265.0000
40.8353	282.0000
40.8445	283.0000
40.8537	308.0000
40.8630	265.0000
40.8722	276.0000
40.8814	249.0000
40.8906	270.0000
40.8999	287.0000
40.9091	279.0000
40.9183	279.0000
40.9275	317.0000
40.9367	283.0000
40.9460	291.0000
40.9552	282.0000
40.9644	290.0000
40.9736	264.0000
40.9829	320.0000
40.9921	297.0000
41.0013	300.0000
41.0105	257.0000
41.0197	298.0000
41.0290	301.0000
41.0382	304.0000
41.0474	279.0000
41.0566	276.0000
41.0659	294.0000
41.0751	291.0000
41.0843	281.0000
41.0935	297.0000
41.1027	287.0000
41.1120	269.0000
41.1212	311.0000
41.1304	285.0000
41.1396	279.0000
41.1489	288.0000
41.1581	234.0000
41.1673	305.0000
41.1765	297.0000
41.1858	302.0000
41.1950	304.0000
41.2042	261.0000
41.2134	267.0000
41.2226	317.0000
41.2319	283.0000
41.2411	304.0000
41.2503	319.0000
41.2595	269.0000
41.2688	305.0000
41.2780	296.0000
41.2872	285.0000
41.2964	265.0000
41.3056	284.0000
41.3149	263.0000
41.3241	272.0000
41.3333	296.0000
41.3425	295.0000
41.3518	295.0000
41.3610	288.0000
41.3702	293.0000
41.3794	278.0000
41.3887	289.0000
41.3979	279.0000
41.4071	286.0000
41.4163	302.0000
41.4255	265.0000
41.4348	275.0000
41.4440	284.0000
41.4532	274.0000
41.4624	275.0000
41.4717	279.0000
41.4809	292.0000
41.4901	296.0000
41.4993	291.0000
41.5085	289.0000
41.5178	272.0000
41.5270	266.0000
41.5362	275.0000
41.5454	319.0000
41.5547	292.0000
41.5639	279.0000
41.5731	271.0000
41.5823	290.0000
41.5915	268.0000
41.6008	266.0000
41.6100	314.0000
41.6192	286.0000
41.6284	273.0000
41.6377	259.0000
41.6469	264.0000
41.6561	290.0000
41.6653	306.0000
41.6746	297.0000
41.6838	270.0000
41.6930	239.0000
41.7022	322.0000
41.7114	272.0000
41.7207	257.0000
41.7299	280.0000
41.7391	279.0000
41.7483	299.0000
41.7576	264.0000
41.7668	293.0000
41.7760	247.0000
41.7852	271.0000
41.7944	279.0000
41.8037	289.0000
41.8129	262.0000
41.8221	265.0000
41.8313	274.0000
41.8406	319.0000
41.8498	296.0000
41.8590	270.0000
41.8682	275.0000
41.8775	254.0000
41.8867	282.0000
41.8959	272.0000
41.9051	305.0000
41.9143	256.0000
41.9236	302.0000
41.9328	294.0000
41.9420	269.0000
41.9512	297.0000
41.9605	278.0000
41.9697	347.0000
41.9789	272.0000
41.9881	290.0000
41.9973	294.0000
42.0066	280.0000
42.0158	263.0000
42.0250	289.0000
42.0342	279.0000
42.0435	274.0000
42.0527	269.0000
42.0619	307.0000
42.0711	280.0000
42.0804	255.0000
42.0896	290.0000
42.0988	296.0000
42.1080	280.0000
42.1172	282.0000
42.1265	284.0000
42.1357	281.0000
42.1449	254.0000
42.1541	254.0000
42.1634	292.0000
42.1726	271.0000
42.1818	290.0000
42.1910	282.0000
42.2002	292.0000
42.2095	298.0000
42.2187	293.0000
42.2279	313.0000
42.2371	266.0000
42.2464	297.0000
42.2556	282.0000
42.2648	261.0000
42.2740	312.0000
42.2832	279.0000
42.2925	310.0000
42.3017	263.0000
42.3109	295.0000
42.3201	269.0000
42.3294	281.0000
42.3386	271.0000
42.3478	273.0000
42.3570	286.0000
42.3663	267.0000
42.3755	281.0000
42.3847	281.0000
42.3939	277.0000
42.4031	261.0000
42.4124	289.0000
42.4216	296.0000
42.4308	303.0000
42.4400	282.0000
42.4493	284.0000
42.4585	292.0000
42.4677	279.0000
42.4769	294.0000
42.4861	270.0000
42.4954	281.0000
42.5046	301.0000
42.5138	271.0000
42.5230	293.0000
42.5323	319.0000
42.5415	289.0000
42.5507	284.0000
42.5599	289.0000
42.5692	262.0000
42.5784	301.0000
42.5876	281.0000
42.5968	300.0000
42.6060	297.0000
42.6153	266.0000
42.6245	310.0000
42.6337	280.0000
42.6429	290.0000
42.6522	293.0000
42.6614	294.0000
42.6706	283.0000
42.6798	293.0000
42.6890	295.0000
42.6983	250.0000
42.7075	300.0000
42.7167	285.0000
42.7259	281.0000
42.7352	307.0000
42.7444	296.0000
42.7536	255.0000
42.7628	295.0000
42.7720	297.0000
42.7813	280.0000
42.7905	280.0000
42.7997	292.0000
42.8089	320.0000
42.8182	292.0000
42.8274	292.0000
42.8366	310.0000
42.8458	292.0000
42.8551	300.0000
42.8643	274.0000
42.8735	259.0000
42.8827	281.0000
42.8919	286.0000
42.9012	282.0000
42.9104	267.0000
42.9196	281.0000
42.9288	249.0000
42.9381	257.0000
42.9473	285.0000
42.9565	302.0000
42.9657	283.0000
42.9749	261.0000
42.9842	282.0000
42.9934	290.0000
43.0026	287.0000
43.0118	285.0000
43.0211	282.0000
43.0303	294.0000
43.0395	248.0000
43.0487	278.0000
43.0580	285.0000
43.0672	264.0000
43.0764	293.0000
43.0856	281.0000
43.0948	280.0000
43.1041	273.0000
43.1133	298.0000
43.1225	305.0000
43.1317	295.0000
43.1410	263.0000
43.1502	278.0000
43.1594	283.0000
43.1686	286.0000
43.1778	286.0000
43.1871	263.0000
43.1963	275.0000
43.2055	269.0000
43.2147	282.0000
43.2240	321.0000
43.2332	295.0000
43.2424	300.0000
43.2516	233.0000
43.2609	258.0000
43.2701	275.0000
43.2793	265.0000
43.2885	252.0000
43.2977	266.0000
43.3070	277.0000
43.3162	265.0000
43.3254	255.0000
43.3346	278.0000
43.3439	286.0000
43.3531	269.0000
43.3623	292.0000
43.3715	278.0000
43.3807	269.0000
43.3900	267.0000
43.3992	301.0000
43.4084	289.0000
43.4176	275.0000
43.4269	262.0000
43.4361	263.0000
43.4453	261.0000
43.4545	293.0000
43.4637	267.0000
43.4730	273.0000
43.4822	249.0000
43.4914	286.0000
43.5006	263.0000
43.5099	296.0000
43.5191	269.0000
43.5283	270.0000
43.5375	286.0000
43.5468	238.0000
43.5560	280.0000
43.5652	270.0000
43.5744	272.0000
43.5836	276.0000
43.5929	288.0000
43.6021	259.0000
43.6113	264.0000
43.6205	247.0000
43.6298	316.0000
43.6390	259.0000
43.6482	251.0000
43.6574	268.0000
43.6666	259.0000
43.6759	270.0000
43.6851	287.0000
43.6943	267.0000
43.7035	264.0000
43.7128	279.0000
43.7220	288.0000
43.7312	240.0000
43.7404	265.0000
43.7497	266.0000
43.7589	280.0000
43.7681	270.0000
43.7773	281.0000
43.7865	279.0000
43.7958	251.0000
43.8050	246.0000
43.8142	252.0000
43.8234	283.0000
43.8327	272.0000
43.8419	273.0000
43.8511	264.0000
43.8603	272.0000
43.8695	233.0000
43.8788	245.0000
43.8880	267.0000
43.8972	257.0000
43.9064	247.0000
43.9157	271.0000
43.9249	281.0000
43.9341	239.0000
43.9433	273.0000
43.9525	281.0000
43.9618	278.0000
43.9710	288.0000
43.9802	246.0000
43.9894	286.0000
43.9987	280.0000
44.0079	277.0000
44.0171	274.0000
44.0263	288.0000
44.0356	265.0000
44.0448	261.0000
44.0540	277.0000
44.0632	251.0000
44.0724	281.0000
44.0817	267.0000
44.0909	312.0000
44.1001	280.0000
44.1093	238.0000
44.1186	295.0000
44.1278	253.0000
44.1370	278.0000
44.1462	287.0000
44.1554	275.0000
44.1647	290.0000
44.1739	257.0000
44.1831	280.0000
44.1923	286.0000
44.2016	253.0000
44.2108	257.0000
44.2200	260.0000
44.2292	264.0000
44.2385	259.0000
44.2477	265.0000
44.2569	275.0000
44.2661	249.0000
44.2753	269.0000
44.2846	294.0000
44.2938	258.0000
44.3030	265.0000
44.3122	267.0000
44.3215	252.0000
44.3307	263.0000
44.3399	251.0000
44.3491	268.0000
44.3583	264.0000
44.3676	277.0000
44.3768	292.0000
44.3860	249.0000
44.3952	264.0000
44.4045	271.0000
44.4137	262.0000
44.4229	292.0000
44.4321	252.0000
44.4414	254.0000
44.4506	257.0000
44.4598	276.0000
44.4690	274.0000
44.4782	270.0000
44.4875	272.0000
44.4967	290.0000
44.5059	253.0000
44.5151	219.0000
44.5244	290.0000
44.5336	271.0000
44.5428	249.0000
44.5520	291.0000
44.5612	277.0000
44.5705	278.0000
44.5797	238.0000
44.5889	263.0000
44.5981	262.0000
44.6074	247.0000
44.6166	243.0000
44.6258	231.0000
44.6350	232.0000
44.6442	253.0000
44.6535	259.0000
44.6627	295.0000
44.6719	223.0000
44.6811	280.0000
44.6904	280.0000
44.6996	261.0000
44.7088	258.0000
44.7180	247.0000
44.7273	255.0000
44.7365	267.0000
44.7457	270.0000
44.7549	291.0000
44.7641	270.0000
44.7734	275.0000
44.7826	269.0000
44.7918	273.0000
44.8010	246.0000
44.8103	257.0000
44.8195	262.0000
44.8287	247.0000
44.8379	291.0000
44.8471	258.0000
44.8564	268.0000
44.8656	246.0000
44.8748	264.0000
44.8840	241.0000
44.8933	271.0000
44.9025	243.0000
44.9117	266.0000
44.9209	235.0000
44.9302	267.0000
44.9394	255.0000
44.9486	252.0000
44.9578	270.0000
44.9670	252.0000
44.9763	269.0000
44.9855	280.0000
44.9947	251.0000
45.0039	278.0000
45.0132	256.0000
45.0224	245.0000
45.0316	259.0000
45.0408	248.0000
45.0500	264.0000
45.0593	264.0000
45.0685	244.0000
45.0777	268.0000
45.0869	265.0000
45.0962	247.0000
45.1054	255.0000
45.1146	260.0000
45.1238	255.0000
45.1330	265.0000
45.1423	268.0000
45.1515	283.0000
45.1607	239.0000
45.1699	274.0000
45.1792	265.0000
45.1884	265.0000
45.1976	287.0000
45.2068	274.0000
45.2161	231.0000
45.2253	264.0000
45.2345	258.0000
45.2437	250.0000
45.2529	240.0000
45.2622	221.0000
45.2714	275.0000
45.2806	279.0000
45.2898	211.0000
45.2991	276.0000
45.3083	270.0000
45.3175	271.0000
45.3267	291.0000
45.3359	264.0000
45.3452	266.0000
45.3544	259.0000
45.3636	256.0000
45.3728	265.0000
45.3821	241.0000
45.3913	241.0000
45.4005	258.0000
45.4097	290.0000
45.4190	262.0000
45.4282	290.0000
45.4374	331.0000
45.4466	397.0000
45.4558	400.0000
45.4651	370.0000
45.4743	358.0000
45.4835	317.0000
45.4927	276.0000
45.5020	285.0000
45.5112	246.0000
45.5204	254.0000
45.5296	260.0000
45.5388	286.0000
45.5481	260.0000
45.5573	279.0000
45.5665	242.0000
45.5757	237.0000
45.5850	272.0000
45.5942	254.0000
45.6034	253.0000
45.6126	264.0000
45.6219	252.0000
45.6311	238.0000
45.6403	241.0000
45.6495	262.0000
45.6587	290.0000
45.6680	255.0000
45.6772	277.0000
45.6864	253.0000
45.6956	270.0000
45.7049	283.0000
45.7141	279.0000
45.7233	259.0000
45.7325	288.0000
45.7417	318.0000
45.7510	324.0000
45.7602	334.0000
45.7694	284.0000
45.7786	281.0000
45.7879	254.0000
45.7971	251.0000
45.8063	227.0000
45.8155	250.0000
45.8247	238.0000
45.8340	217.0000
45.8432	223.0000
45.8524	266.0000
45.8616	249.0000
45.8709	209.0000
45.8801	231.0000
45.8893	224.0000
45.8985	262.0000
45.9078	235.0000
45.9170	266.0000
45.9262	266.0000
45.9354	262.0000
45.9446	267.0000
45.9539	217.0000
45.9631	226.0000
45.9723	225.0000
45.9815	240.0000
45.9908	261.0000
46.0000	257.0000
46.0092	265.0000
46.0184	263.0000
46.0276	255.0000
46.0369	265.0000
46.0461	215.0000
46.0553	246.0000
46.0645	252.0000
46.0738	222.0000
46.0830	235.0000
46.0922	255.0000
46.1014	232.0000
46.1107	225.0000
46.1199	263.0000
46.1291	245.0000
46.1383	227.0000
46.1475	262.0000
46.1568	233.0000
46.1660	258.0000
46.1752	223.0000
46.1844	252.0000
46.1937	266.0000
46.2029	223.0000
46.2121	230.0000
46.2213	261.0000
46.2305	239.0000
46.2398	243.0000
46.2490	262.0000
46.2582	228.0000
46.2674	211.0000
46.2767	240.0000
46.2859	250.0000
46.2951	261.0000
46.3043	247.0000
46.3135	230.0000
46.3228	268.0000
46.3320	239.0000
46.3412	268.0000
46.3504	252.0000
46.3597	256.0000
46.3689	242.0000
46.3781	253.0000
46.3873	253.0000
46.3966	245.0000
46.4058	241.0000
46.4150	222.0000
46.4242	236.0000
46.4334	252.0000
46.4427	226.0000
46.4519	254.0000
46.4611	247.0000
46.4703	239.0000
46.4796	223.0000
46.4888	257.0000
46.4980	252.0000
46.5072	230.0000
46.5164	237.0000
46.5257	250.0000
46.5349	243.0000
46.5441	235.0000
46.5533	251.0000
46.5626	228.0000
46.5718	265.0000
46.5810	249.0000
46.5902	230.0000
46.5995	206.0000
46.6087	233.0000
46.6179	272.0000
46.6271	213.0000
46.6363	218.0000
46.6456	251.0000
46.6548	225.0000
46.6640	253.0000
46.6732	220.0000
46.6825	195.0000
46.6917	230.0000
46.7009	247.0000
46.7101	237.0000
46.7193	226.0000
46.7286	223.0000
46.7378	246.0000
46.7470	227.0000
46.7562	209.0000
46.7655	241.0000
46.7747	220.0000
46.7839	236.0000
46.7931	225.0000
46.8024	223.0000
46.8116	221.0000
46.8208	208.0000
46.8300	255.0000
46.8392	256.0000
46.8485	216.0000
46.8577	213.0000
46.8669	245.0000
46.8761	227.0000
46.8854	241.0000
46.8946	234.0000
46.9038	256.0000
46.9130	251.0000
46.9222	220.0000
46.9315	247.0000
46.9407	225.0000
46.9499	243.0000
46.9591	235.0000
46.9684	241.0000
46.9776	236.0000
46.9868	247.0000
46.9960	234.0000
47.0052	254.0000
47.0145	224.0000
47.0237	266.0000
47.0329	241.0000
47.0421	208.0000
47.0514	223.0000
47.0606	224.0000
47.0698	221.0000
47.0790	224.0000
47.0883	203.0000
47.0975	215.0000
47.1067	263.0000
47.1159	219.0000
47.1251	250.0000
47.1344	257.0000
47.1436	225.0000
47.1528	230.0000
47.1620	225.0000
47.1713	253.0000
47.1805	210.0000
47.1897	243.0000
47.1989	211.0000
47.2081	227.0000
47.2174	218.0000
47.2266	256.0000
47.2358	234.0000
47.2450	253.0000
47.2543	230.0000
47.2635	224.0000
47.2727	219.0000
47.2819	251.0000
47.2912	239.0000
47.3004	232.0000
47.3096	228.0000
47.3188	221.0000
47.3280	221.0000
47.3373	221.0000
47.3465	223.0000
47.3557	238.0000
47.3649	213.0000
47.3742	209.0000
47.3834	219.0000
47.3926	201.0000
47.4018	244.0000
47.4110	228.0000
47.4203	199.0000
47.4295	248.0000
47.4387	203.0000
47.4479	213.0000
47.4572	247.0000
47.4664	209.0000
47.4756	204.0000
47.4848	247.0000
47.4940	235.0000
47.5033	216.0000
47.5125	224.0000
47.5217	218.0000
47.5309	204.0000
47.5402	226.0000
47.5494	215.0000
47.5586	232.0000
47.5678	234.0000
47.5771	218.0000
47.5863	226.0000
47.5955	227.0000
47.6047	240.0000
47.6139	219.0000
47.6232	205.0000
47.6324	204.0000
47.6416	202.0000
47.6508	233.0000
47.6601	254.0000
47.6693	237.0000
47.6785	212.0000
47.6877	219.0000
47.6969	239.0000
47.7062	230.0000
47.7154	231.0000
47.7246	248.0000
47.7338	215.0000
47.7431	214.0000
47.7523	223.0000
47.7615	235.0000
47.7707	222.0000
47.7800	233.0000
47.7892	236.0000
47.7984	212.0000
47.8076	220.0000
47.8168	215.0000
47.8261	237.0000
47.8353	223.0000
47.8445	227.0000
47.8537	239.0000
47.8630	223.0000
47.8722	244.0000
47.8814	223.0000
47.8906	214.0000
47.8998	239.0000
47.9091	209.0000
47.9183	222.0000
47.9275	226.0000
47.9367	222.0000
47.9460	226.0000
47.9552	207.0000
47.9644	230.0000
47.9736	219.0000
47.9829	205.0000
47.9921	208.0000
48.0013	218.0000
