11.0000	258.0000
11.0092	267.0000
11.0184	270.0000
11.0277	262.0000
11.0369	226.0000
11.0461	251.0000
11.0553	236.0000
11.0646	267.0000
11.0738	236.0000
11.0830	269.0000
11.0922	242.0000
11.1014	237.0000
11.1107	257.0000
11.1199	233.0000
11.1291	207.0000
11.1383	250.0000
11.1476	244.0000
11.1568	238.0000
11.1660	226.0000
11.1752	227.0000
11.1845	232.0000
11.1937	239.0000
11.2029	204.0000
11.2121	260.0000
11.2213	269.0000
11.2306	244.0000
11.2398	207.0000
11.2490	240.0000
11.2582	231.0000
11.2675	237.0000
11.2767	218.0000
11.2859	234.0000
11.2951	228.0000
11.3043	230.0000
11.3136	219.0000
11.3228	218.0000
11.3320	225.0000
11.3412	219.0000
11.3505	263.0000
11.3597	249.0000
11.3689	230.0000
11.3781	218.0000
11.3874	207.0000
11.3966	220.0000
11.4058	228.0000
11.4150	227.0000
11.4242	220.0000
11.4335	217.0000
11.4427	232.0000
11.4519	217.0000
11.4611	214.0000
11.4704	211.0000
11.4796	225.0000
11.4888	227.0000
11.4980	215.0000
11.5072	224.0000
11.5165	185.0000
11.5257	210.0000
11.5349	218.0000
11.5441	207.0000
11.5534	203.0000
11.5626	220.0000
11.5718	214.0000
11.5810	208.0000
11.5902	188.0000
11.5995	207.0000
11.6087	211.0000
11.6179	239.0000
11.6271	204.0000
11.6364	219.0000
11.6456	192.0000
11.6548	198.0000
11.6640	214.0000
11.6733	193.0000
11.6825	200.0000
11.6917	181.0000
11.7009	194.0000
11.7101	236.0000
11.7194	211.0000
11.7286	185.0000
11.7378	176.0000
11.7470	225.0000
11.7563	214.0000
11.7655	209.0000
11.7747	226.0000
11.7839	195.0000
11.7931	205.0000
11.8024	165.0000
11.8116	206.0000
11.8208	202.0000
11.8300	199.0000
11.8393	192.0000
11.8485	190.0000
11.8577	184.0000
11.8669	206.0000
11.8762	196.0000
11.8854	207.0000
11.8946	193.0000
11.9038	205.0000
11.9130	206.0000
11.9223	202.0000
11.9315	187.0000
11.9407	174.0000
11.9499	169.0000
11.9592	202.0000
11.9684	200.0000
11.9776	210.0000
11.9868	181.0000
11.9960	202.0000
12.0053	200.0000
12.0145	196.0000
12.0237	202.0000
12.0329	182.0000
12.0422	207.0000
12.0514	193.0000
12.0606	188.0000
12.0698	159.0000
12.0791	187.0000
12.0883	217.0000
12.0975	183.0000
12.1067	183.0000
12.1159	172.0000
12.1252	181.0000
12.1344	188.0000
12.1436	184.0000
12.1528	181.0000
12.1621	175.0000
12.1713	171.0000
12.1805	184.0000
12.1897	152.0000
12.1989	201.0000
12.2082	177.0000
12.2174	177.0000
12.2266	175.0000
12.2358	164.0000
12.2451	186.0000
12.2543	173.0000
12.2635	175.0000
12.2727	167.0000
12.2819	179.0000
12.2912	174.0000
12.3004	179.0000
12.3096	161.0000
12.3188	186.0000
12.3281	172.0000
12.3373	206.0000
12.3465	178.0000
12.3557	167.0000
12.3650	175.0000
12.3742	175.0000
12.3834	161.0000
12.3926	175.0000
12.4018	156.0000
12.4111	158.0000
12.4203	165.0000
12.4295	161.0000
12.4387	174.0000
12.4480	163.0000
12.4572	154.0000
12.4664	163.0000
12.4756	163.0000
12.4848	156.0000
12.4941	165.0000
12.5033	142.0000
12.5125	146.0000
12.5217	174.0000
12.5310	175.0000
12.5402	173.0000
12.5494	180.0000
12.5586	159.0000
12.5679	176.0000
12.5771	164.0000
12.5863	162.0000
12.5955	158.0000
12.6047	162.0000
12.6140	172.0000
12.6232	178.0000
12.6324	154.0000
12.6416	148.0000
12.6509	146.0000
12.6601	162.0000
12.6693	148.0000
12.6785	190.0000
12.6877	140.0000
12.6970	165.0000
12.7062	150.0000
12.7154	143.0000
12.7246	139.0000
12.7339	177.0000
12.7431	146.0000
12.7523	163.0000
12.7615	134.0000
12.7707	170.0000
12.7800	157.0000
12.7892	180.0000
12.7984	166.0000
12.8076	143.0000
12.8169	186.0000
12.8261	141.0000
12.8353	156.0000
12.8445	167.0000
12.8538	188.0000
12.8630	137.0000
12.8722	153.0000
12.8814	153.0000
12.8906	122.0000
12.8999	157.0000
12.9091	141.0000
12.9183	156.0000
12.9275	161.0000
12.9368	169.0000
12.9460	163.0000
12.9552	147.0000
12.9644	157.0000
12.9736	152.0000
12.9829	147.0000
12.9921	138.0000
13.0013	146.0000
13.0105	131.0000
13.0198	158.0000
13.0290	135.0000
13.0382	145.0000
13.0474	146.0000
13.0567	152.0000
13.0659	155.0000
13.0751	157.0000
13.0843	156.0000
13.0935	160.0000
13.1028	132.0000
13.1120	108.0000
13.1212	124.0000
13.1304	138.0000
13.1397	118.0000
13.1489	108.0000
13.1581	140.0000
13.1673	146.0000
13.1765	151.0000
13.1858	150.0000
13.1950	146.0000
13.2042	143.0000
13.2134	151.0000
13.2227	133.0000
13.2319	173.0000
13.2411	148.0000
13.2503	138.0000
13.2596	135.0000
13.2688	131.0000
13.2780	142.0000
13.2872	139.0000
13.2964	155.0000
13.3057	129.0000
13.3149	157.0000
13.3241	148.0000
13.3333	143.0000
13.3426	148.0000
13.3518	140.0000
13.3610	152.0000
13.3702	123.0000
13.3794	121.0000
13.3887	156.0000
13.3979	153.0000
13.4071	133.0000
13.4163	145.0000
13.4256	137.0000
13.4348	127.0000
13.4440	140.0000
13.4532	135.0000
13.4624	133.0000
13.4717	127.0000
13.4809	132.0000
13.4901	126.0000
13.4993	120.0000
13.5086	131.0000
13.5178	132.0000
13.5270	143.0000
13.5362	110.0000
13.5455	131.0000
13.5547	121.0000
13.5639	123.0000
13.5731	121.0000
13.5823	142.0000
13.5916	139.0000
13.6008	129.0000
13.6100	141.0000
13.6192	145.0000
13.6285	137.0000
13.6377	137.0000
13.6469	141.0000
13.6561	133.0000
13.6653	111.0000
13.6746	130.0000
13.6838	119.0000
13.6930	133.0000
13.7022	135.0000
13.7115	124.0000
13.7207	120.0000
13.7299	145.0000
13.7391	131.0000
13.7484	140.0000
13.7576	123.0000
13.7668	102.0000
13.7760	110.0000
13.7852	129.0000
13.7945	135.0000
13.8037	138.0000
13.8129	125.0000
13.8221	125.0000
13.8314	119.0000
13.8406	112.0000
13.8498	109.0000
13.8590	129.0000
13.8682	115.0000
13.8775	117.0000
13.8867	127.0000
13.8959	95.0000
13.9051	115.0000
13.9144	116.0000
13.9236	118.0000
13.9328	114.0000
13.9420	123.0000
13.9512	118.0000
13.9605	112.0000
13.9697	101.0000
13.9789	117.0000
13.9881	128.0000
13.9974	126.0000
14.0066	99.0000
14.0158	131.0000
14.0250	130.0000
14.0343	117.0000
14.0435	105.0000
14.0527	111.0000
14.0619	108.0000
14.0711	107.0000
14.0804	119.0000
14.0896	140.0000
14.0988	122.0000
14.1080	120.0000
14.1173	130.0000
14.1265	109.0000
14.1357	121.0000
14.1449	134.0000
14.1541	124.0000
14.1634	117.0000
14.1726	119.0000
14.1818	125.0000
14.1910	90.0000
14.2003	104.0000
14.2095	130.0000
14.2187	104.0000
14.2279	130.0000
14.2372	125.0000
14.2464	119.0000
14.2556	103.0000
14.2648	119.0000
14.2740	106.0000
14.2833	104.0000
14.2925	103.0000
14.3017	131.0000
14.3109	104.0000
14.3202	106.0000
14.3294	107.0000
14.3386	126.0000
14.3478	133.0000
14.3570	102.0000
14.3663	122.0000
14.3755	128.0000
14.3847	106.0000
14.3939	104.0000
14.4032	104.0000
14.4124	115.0000
14.4216	108.0000
14.4308	121.0000
14.4401	131.0000
14.4493	104.0000
14.4585	117.0000
14.4677	101.0000
14.4769	113.0000
14.4862	114.0000
14.4954	111.0000
14.5046	118.0000
14.5138	120.0000
14.5231	99.0000
14.5323	100.0000
14.5415	104.0000
14.5507	107.0000
14.5599	113.0000
14.5692	86.0000
14.5784	85.0000
14.5876	123.0000
14.5968	107.0000
14.6061	133.0000
14.6153	107.0000
14.6245	107.0000
14.6337	97.0000
14.6429	121.0000
14.6522	106.0000
14.6614	102.0000
14.6706	125.0000
14.6798	122.0000
14.6891	109.0000
14.6983	124.0000
14.7075	109.0000
14.7167	113.0000
14.7260	89.0000
14.7352	117.0000
14.7444	100.0000
14.7536	123.0000
14.7628	111.0000
14.7721	94.0000
14.7813	92.0000
14.7905	113.0000
14.7997	116.0000
14.8090	98.0000
14.8182	101.0000
14.8274	87.0000
14.8366	100.0000
14.8458	113.0000
14.8551	117.0000
14.8643	109.0000
14.8735	92.0000
14.8827	110.0000
14.8920	102.0000
14.9012	115.0000
14.9104	92.0000
14.9196	94.0000
14.9289	105.0000
14.9381	100.0000
14.9473	93.0000
14.9565	103.0000
14.9657	109.0000
14.9750	113.0000
14.9842	92.0000
14.9934	108.0000
15.0026	113.0000
15.0119	69.0000
15.0211	103.0000
15.0303	109.0000
15.0395	113.0000
15.0487	107.0000
15.0580	99.0000
15.0672	119.0000
15.0764	100.0000
15.0856	105.0000
15.0949	103.0000
15.1041	87.0000
15.1133	90.0000
15.1225	89.0000
15.1317	103.0000
15.1410	88.0000
15.1502	119.0000
15.1594	89.0000
15.1686	103.0000
15.1779	100.0000
15.1871	106.0000
15.1963	97.0000
15.2055	103.0000
15.2148	112.0000
15.2240	106.0000
15.2332	90.0000
15.2424	98.0000
15.2516	106.0000
15.2609	89.0000
15.2701	119.0000
15.2793	102.0000
15.2885	118.0000
15.2978	104.0000
15.3070	97.0000
15.3162	111.0000
15.3254	77.0000
15.3346	90.0000
15.3439	117.0000
15.3531	89.0000
15.3623	98.0000
15.3715	104.0000
15.3808	99.0000
15.3900	78.0000
15.3992	98.0000
15.4084	102.0000
15.4177	93.0000
15.4269	86.0000
15.4361	117.0000
15.4453	108.0000
15.4545	129.0000
15.4638	87.0000
15.4730	96.0000
15.4822	101.0000
15.4914	73.0000
15.5007	87.0000
15.5099	94.0000
15.5191	86.0000
15.5283	89.0000
15.5375	87.0000
15.5468	97.0000
15.5560	100.0000
15.5652	101.0000
15.5744	107.0000
15.5837	108.0000
15.5929	96.0000
15.6021	97.0000
15.6113	93.0000
15.6206	112.0000
15.6298	107.0000
15.6390	92.0000
15.6482	95.0000
15.6574	77.0000
15.6667	102.0000
15.6759	111.0000
15.6851	119.0000
15.6943	81.0000
15.7036	86.0000
15.7128	77.0000
15.7220	112.0000
15.7312	102.0000
15.7404	109.0000
15.7497	91.0000
15.7589	97.0000
15.7681	105.0000
15.7773	108.0000
15.7866	101.0000
15.7958	98.0000
15.8050	87.0000
15.8142	99.0000
15.8234	95.0000
15.8327	74.0000
15.8419	92.0000
15.8511	107.0000
15.8603	94.0000
15.8696	91.0000
15.8788	103.0000
15.8880	98.0000
15.8972	73.0000
15.9065	75.0000
15.9157	111.0000
15.9249	96.0000
15.9341	101.0000
15.9433	115.0000
15.9526	97.0000
15.9618	87.0000
15.9710	102.0000
15.9802	106.0000
15.9895	83.0000
15.9987	108.0000
16.0079	91.0000
16.0171	86.0000
16.0263	91.0000
16.0356	84.0000
16.0448	108.0000
16.0540	81.0000
16.0632	91.0000
16.0725	96.0000
16.0817	84.0000
16.0909	79.0000
16.1001	82.0000
16.1094	89.0000
16.1186	64.0000
16.1278	94.0000
16.1370	83.0000
16.1462	77.0000
16.1555	84.0000
16.1647	102.0000
16.1739	90.0000
16.1831	93.0000
16.1924	92.0000
16.2016	115.0000
16.2108	89.0000
16.2200	93.0000
16.2292	77.0000
16.2385	85.0000
16.2477	93.0000
16.2569	75.0000
16.2661	85.0000
16.2754	75.0000
16.2846	91.0000
16.2938	87.0000
16.3030	94.0000
16.3122	96.0000
16.3215	91.0000
16.3307	108.0000
16.3399	79.0000
16.3491	99.0000
16.3584	81.0000
16.3676	104.0000
16.3768	92.0000
16.3860	84.0000
16.3953	83.0000
16.4045	96.0000
16.4137	72.0000
16.4229	94.0000
16.4321	99.0000
16.4414	84.0000
16.4506	97.0000
16.4598	80.0000
16.4690	73.0000
16.4783	87.0000
16.4875	83.0000
16.4967	75.0000
16.5059	101.0000
16.5151	91.0000
16.5244	88.0000
16.5336	82.0000
16.5428	97.0000
16.5520	78.0000
16.5613	77.0000
16.5705	82.0000
16.5797	88.0000
16.5889	76.0000
16.5982	93.0000
16.6074	93.0000
16.6166	80.0000
16.6258	78.0000
16.6350	86.0000
16.6443	74.0000
16.6535	85.0000
16.6627	77.0000
16.6719	84.0000
16.6812	88.0000
16.6904	84.0000
16.6996	82.0000
16.7088	85.0000
16.7180	92.0000
16.7273	71.0000
16.7365	66.0000
16.7457	98.0000
16.7549	71.0000
16.7642	89.0000
16.7734	80.0000
16.7826	76.0000
16.7918	83.0000
16.8011	84.0000
16.8103	75.0000
16.8195	96.0000
16.8287	87.0000
16.8379	74.0000
16.8472	91.0000
16.8564	84.0000
16.8656	71.0000
16.8748	81.0000
16.8841	67.0000
16.8933	82.0000
16.9025	80.0000
16.9117	73.0000
16.9209	75.0000
16.9302	63.0000
16.9394	87.0000
16.9486	85.0000
16.9578	81.0000
16.9671	67.0000
16.9763	70.0000
16.9855	79.0000
16.9947	77.0000
17.0039	76.0000
17.0132	83.0000
17.0224	79.0000
17.0316	75.0000
17.0408	76.0000
17.0501	73.0000
17.0593	87.0000
17.0685	77.0000
17.0777	80.0000
17.0870	87.0000
17.0962	84.0000
17.1054	70.0000
17.1146	73.0000
17.1238	69.0000
17.1331	80.0000
17.1423	82.0000
17.1515	68.0000
17.1607	65.0000
17.1700	69.0000
17.1792	75.0000
17.1884	80.0000
17.1976	68.0000
17.2068	86.0000
17.2161	92.0000
17.2253	81.0000
17.2345	69.0000
17.2437	70.0000
17.2530	82.0000
17.2622	68.0000
17.2714	79.0000
17.2806	95.0000
17.2899	76.0000
17.2991	85.0000
17.3083	78.0000
17.3175	76.0000
17.3267	73.0000
17.3360	91.0000
17.3452	74.0000
17.3544	88.0000
17.3636	76.0000
17.3729	81.0000
17.3821	85.0000
17.3913	88.0000
17.4005	61.0000
17.4097	93.0000
17.4190	68.0000
17.4282	80.0000
17.4374	60.0000
17.4466	76.0000
17.4559	72.0000
17.4651	79.0000
17.4743	71.0000
17.4835	81.0000
17.4927	93.0000
17.5020	71.0000
17.5112	55.0000
17.5204	89.0000
17.5296	71.0000
17.5389	70.0000
17.5481	73.0000
17.5573	65.0000
17.5665	51.0000
17.5758	62.0000
17.5850	77.0000
17.5942	78.0000
17.6034	53.0000
17.6126	54.0000
17.6219	68.0000
17.6311	77.0000
17.6403	76.0000
17.6495	87.0000
17.6588	68.0000
17.6680	65.0000
17.6772	88.0000
17.6864	52.0000
17.6956	79.0000
17.7049	74.0000
17.7141	73.0000
17.7233	83.0000
17.7325	80.0000
17.7418	66.0000
17.7510	62.0000
17.7602	66.0000
17.7694	79.0000
17.7787	63.0000
17.7879	79.0000
17.7971	76.0000
17.8063	80.0000
17.8155	69.0000
17.8248	76.0000
17.8340	61.0000
17.8432	66.0000
17.8524	71.0000
17.8617	80.0000
17.8709	81.0000
17.8801	81.0000
17.8893	67.0000
17.8985	67.0000
17.9078	69.0000
17.9170	73.0000
17.9262	69.0000
17.9354	86.0000
17.9447	70.0000
17.9539	71.0000
17.9631	67.0000
17.9723	73.0000
17.9816	71.0000
17.9908	65.0000
18.0000	82.0000
18.0092	81.0000
18.0184	84.0000
18.0277	75.0000
18.0369	60.0000
18.0461	59.0000
18.0553	74.0000
18.0646	61.0000
18.0738	72.0000
18.0830	65.0000
18.0922	49.0000
18.1014	53.0000
18.1107	68.0000
18.1199	66.0000
18.1291	61.0000
18.1383	71.0000
18.1476	73.0000
18.1568	61.0000
18.1660	65.0000
18.1752	72.0000
18.1844	70.0000
18.1937	63.0000
18.2029	63.0000
18.2121	70.0000
18.2213	56.0000
18.2306	74.0000
18.2398	60.0000
18.2490	70.0000
18.2582	57.0000
18.2675	71.0000
18.2767	87.0000
18.2859	78.0000
18.2951	73.0000
18.3043	75.0000
18.3136	66.0000
18.3228	61.0000
18.3320	65.0000
18.3412	70.0000
18.3505	69.0000
18.3597	68.0000
18.3689	82.0000
18.3781	68.0000
18.3873	83.0000
18.3966	55.0000
18.4058	66.0000
18.4150	65.0000
18.4242	69.0000
18.4335	77.0000
18.4427	46.0000
18.4519	80.0000
18.4611	78.0000
18.4704	84.0000
18.4796	65.0000
18.4888	61.0000
18.4980	59.0000
18.5072	54.0000
18.5165	76.0000
18.5257	62.0000
18.5349	65.0000
18.5441	59.0000
18.5534	58.0000
18.5626	60.0000
18.5718	65.0000
18.5810	75.0000
18.5902	59.0000
18.5995	59.0000
18.6087	57.0000
18.6179	53.0000
18.6271	55.0000
18.6364	66.0000
18.6456	76.0000
18.6548	70.0000
18.6640	68.0000
18.6732	70.0000
18.6825	55.0000
18.6917	63.0000
18.7009	77.0000
18.7101	60.0000
18.7194	71.0000
18.7286	75.0000
18.7378	63.0000
18.7470	72.0000
18.7563	72.0000
18.7655	65.0000
18.7747	53.0000
18.7839	54.0000
18.7931	62.0000
18.8024	80.0000
18.8116	65.0000
18.8208	72.0000
18.8300	72.0000
18.8393	72.0000
18.8485	64.0000
18.8577	57.0000
18.8669	71.0000
18.8761	68.0000
18.8854	67.0000
18.8946	55.0000
18.9038	76.0000
18.9130	81.0000
18.9223	63.0000
18.9315	70.0000
18.9407	80.0000
18.9499	69.0000
18.9592	64.0000
18.9684	45.0000
18.9776	84.0000
18.9868	71.0000
18.9960	60.0000
19.0053	58.0000
19.0145	61.0000
19.0237	66.0000
19.0329	75.0000
19.0422	86.0000
19.0514	53.0000
19.0606	58.0000
19.0698	66.0000
19.0790	64.0000
19.0883	62.0000
19.0975	51.0000
19.1067	63.0000
19.1159	69.0000
19.1252	67.0000
19.1344	70.0000
19.1436	66.0000
19.1528	71.0000
19.1621	70.0000
19.1713	52.0000
19.1805	71.0000
19.1897	75.0000
19.1989	69.0000
19.2082	85.0000
19.2174	67.0000
19.2266	66.0000
19.2358	67.0000
19.2451	62.0000
19.2543	67.0000
19.2635	79.0000
19.2727	50.0000
19.2819	68.0000
19.2912	59.0000
19.3004	59.0000
19.3096	73.0000
19.3188	51.0000
19.3281	81.0000
19.3373	72.0000
19.3465	62.0000
19.3557	57.0000
19.3649	61.0000
19.3742	82.0000
19.3834	72.0000
19.3926	72.0000
19.4018	69.0000
19.4111	72.0000
19.4203	65.0000
19.4295	59.0000
19.4387	46.0000
19.4480	49.0000
19.4572	66.0000
19.4664	64.0000
19.4756	80.0000
19.4848	76.0000
19.4941	76.0000
19.5033	78.0000
19.5125	77.0000
19.5217	66.0000
19.5310	63.0000
19.5402	93.0000
19.5494	70.0000
19.5586	61.0000
19.5678	58.0000
19.5771	73.0000
19.5863	69.0000
19.5955	77.0000
19.6047	65.0000
19.6140	79.0000
19.6232	64.0000
19.6324	73.0000
19.6416	58.0000
19.6509	74.0000
19.6601	55.0000
19.6693	64.0000
19.6785	70.0000
19.6877	66.0000
19.6970	60.0000
19.7062	62.0000
19.7154	75.0000
19.7246	67.0000
19.7339	65.0000
19.7431	66.0000
19.7523	76.0000
19.7615	70.0000
19.7707	62.0000
19.7800	68.0000
19.7892	56.0000
19.7984	60.0000
19.8076	68.0000
19.8169	60.0000
19.8261	63.0000
19.8353	61.0000
19.8445	77.0000
19.8537	51.0000
19.8630	63.0000
19.8722	77.0000
19.8814	76.0000
19.8906	58.0000
19.8999	77.0000
19.9091	79.0000
19.9183	55.0000
19.9275	60.0000
19.9368	70.0000
19.9460	55.0000
19.9552	86.0000
19.9644	54.0000
19.9736	78.0000
19.9829	69.0000
19.9921	55.0000
20.0013	66.0000
20.0105	59.0000
20.0198	69.0000
20.0290	59.0000
20.0382	47.0000
20.0474	60.0000
20.0566	66.0000
20.0659	73.0000
20.0751	54.0000
20.0843	58.0000
20.0935	62.0000
20.1028	69.0000
20.1120	62.0000
20.1212	65.0000
20.1304	74.0000
20.1397	71.0000
20.1489	67.0000
20.1581	53.0000
20.1673	70.0000
20.1765	69.0000
20.1858	77.0000
20.1950	63.0000
20.2042	63.0000
20.2134	70.0000
20.2227	60.0000
20.2319	72.0000
20.2411	59.0000
20.2503	73.0000
20.2595	72.0000
20.2688	61.0000
20.2780	50.0000
20.2872	70.0000
20.2964	66.0000
20.3057	66.0000
20.3149	63.0000
20.3241	60.0000
20.3333	68.0000
20.3426	80.0000
20.3518	71.0000
20.3610	60.0000
20.3702	59.0000
20.3794	58.0000
20.3887	57.0000
20.3979	65.0000
20.4071	73.0000
20.4163	60.0000
20.4256	67.0000
20.4348	82.0000
20.4440	67.0000
20.4532	70.0000
20.4624	61.0000
20.4717	69.0000
20.4809	64.0000
20.4901	68.0000
20.4993	75.0000
20.5086	64.0000
20.5178	56.0000
20.5270	69.0000
20.5362	80.0000
20.5454	76.0000
20.5547	66.0000
20.5639	79.0000
20.5731	67.0000
20.5823	73.0000
20.5916	66.0000
20.6008	58.0000
20.6100	70.0000
20.6192	56.0000
20.6285	52.0000
20.6377	68.0000
20.6469	75.0000
20.6561	68.0000
20.6653	70.0000
20.6746	66.0000
20.6838	78.0000
20.6930	57.0000
20.7022	77.0000
20.7115	69.0000
20.7207	72.0000
20.7299	75.0000
20.7391	92.0000
20.7483	63.0000
20.7576	79.0000
20.7668	72.0000
20.7760	78.0000
20.7852	77.0000
20.7945	68.0000
20.8037	57.0000
20.8129	72.0000
20.8221	75.0000
20.8314	93.0000
20.8406	68.0000
20.8498	78.0000
20.8590	68.0000
20.8682	66.0000
20.8775	77.0000
20.8867	61.0000
20.8959	78.0000
20.9051	74.0000
20.9144	62.0000
20.9236	57.0000
20.9328	73.0000
20.9420	71.0000
20.9512	82.0000
20.9605	68.0000
20.9697	71.0000
20.9789	71.0000
20.9881	76.0000
20.9974	76.0000
21.0066	68.0000
21.0158	63.0000
21.0250	73.0000
21.0342	85.0000
21.0435	59.0000
21.0527	60.0000
21.0619	79.0000
21.0711	75.0000
21.0804	73.0000
21.0896	71.0000
21.0988	72.0000
21.1080	87.0000
21.1173	77.0000
21.1265	72.0000
21.1357	81.0000
21.1449	70.0000
21.1541	83.0000
21.1634	80.0000
21.1726	87.0000
21.1818	92.0000
21.1910	84.0000
21.2003	98.0000
21.2095	89.0000
21.2187	108.0000
21.2279	127.0000
21.2371	126.0000
21.2464	156.0000
21.2556	184.0000
21.2648	343.0000
21.2740	616.0000
21.2833	1165.0000
21.2925	1677.0000
21.3017	1452.0000
21.3109	905.0000
21.3202	435.0000
21.3294	238.0000
21.3386	160.0000
21.3478	129.0000
21.3570	117.0000
21.3663	125.0000
21.3755	153.0000
21.3847	181.0000
21.3939	272.0000
21.4032	456.0000
21.4124	727.0000
21.4216	844.0000
21.4308	747.0000
21.4400	431.0000
21.4493	251.0000
21.4585	146.0000
21.4677	116.0000
21.4769	103.0000
21.4862	105.0000
21.4954	83.0000
21.5046	85.0000
21.5138	59.0000
21.5231	77.0000
21.5323	76.0000
21.5415	86.0000
21.5507	66.0000
21.5599	64.0000
21.5692	83.0000
21.5784	69.0000
21.5876	69.0000
21.5968	84.0000
21.6061	73.0000
21.6153	72.0000
21.6245	69.0000
21.6337	57.0000
21.6429	60.0000
21.6522	70.0000
21.6614	69.0000
21.6706	72.0000
21.6798	84.0000
21.6891	64.0000
21.6983	66.0000
21.7075	77.0000
21.7167	63.0000
21.7259	71.0000
21.7352	84.0000
21.7444	78.0000
21.7536	59.0000
21.7628	84.0000
21.7721	78.0000
21.7813	76.0000
21.7905	75.0000
21.7997	74.0000
21.8090	68.0000
21.8182	73.0000
21.8274	87.0000
21.8366	55.0000
21.8458	61.0000
21.8551	77.0000
21.8643	69.0000
21.8735	73.0000
21.8827	75.0000
21.8920	73.0000
21.9012	67.0000
21.9104	61.0000
21.9196	80.0000
21.9288	85.0000
21.9381	75.0000
21.9473	67.0000
21.9565	72.0000
21.9657	65.0000
21.9750	61.0000
21.9842	64.0000
21.9934	77.0000
22.0026	82.0000
22.0119	57.0000
22.0211	62.0000
22.0303	69.0000
22.0395	79.0000
22.0487	65.0000
22.0580	83.0000
22.0672	54.0000
22.0764	67.0000
22.0856	61.0000
22.0949	81.0000
22.1041	66.0000
22.1133	57.0000
22.1225	55.0000
22.1317	73.0000
22.1410	76.0000
22.1502	60.0000
22.1594	62.0000
22.1686	67.0000
22.1779	64.0000
22.1871	78.0000
22.1963	64.0000
22.2055	54.0000
22.2147	70.0000
22.2240	81.0000
22.2332	70.0000
22.2424	62.0000
22.2516	77.0000
22.2609	68.0000
22.2701	62.0000
22.2793	66.0000
22.2885	70.0000
22.2978	80.0000
22.3070	66.0000
22.3162	62.0000
22.3254	66.0000
22.3346	81.0000
22.3439	65.0000
22.3531	78.0000
22.3623	64.0000
22.3715	77.0000
22.3808	68.0000
22.3900	71.0000
22.3992	56.0000
22.4084	73.0000
22.4176	74.0000
22.4269	60.0000
22.4361	48.0000
22.4453	71.0000
22.4545	52.0000
22.4638	52.0000
22.4730	54.0000
22.4822	53.0000
22.4914	67.0000
22.5007	62.0000
22.5099	56.0000
22.5191	78.0000
22.5283	64.0000
22.5375	53.0000
22.5468	70.0000
22.5560	58.0000
22.5652	53.0000
22.5744	62.0000
22.5837	81.0000
22.5929	56.0000
22.6021	74.0000
22.6113	67.0000
22.6205	69.0000
22.6298	69.0000
22.6390	66.0000
22.6482	57.0000
22.6574	68.0000
22.6667	60.0000
22.6759	62.0000
22.6851	65.0000
22.6943	77.0000
22.7036	72.0000
22.7128	64.0000
22.7220	52.0000
22.7312	69.0000
22.7404	73.0000
22.7497	63.0000
22.7589	72.0000
22.7681	56.0000
22.7773	60.0000
22.7866	71.0000
22.7958	69.0000
22.8050	68.0000
22.8142	63.0000
22.8234	48.0000
22.8327	62.0000
22.8419	65.0000
22.8511	64.0000
22.8603	77.0000
22.8696	60.0000
22.8788	72.0000
22.8880	60.0000
22.8972	56.0000
22.9064	60.0000
22.9157	58.0000
22.9249	77.0000
22.9341	65.0000
22.9433	73.0000
22.9526	73.0000
22.9618	58.0000
22.9710	67.0000
22.9802	44.0000
22.9895	60.0000
22.9987	58.0000
23.0079	66.0000
23.0171	55.0000
23.0263	61.0000
23.0356	72.0000
23.0448	69.0000
23.0540	60.0000
23.0632	63.0000
23.0725	70.0000
23.0817	61.0000
23.0909	59.0000
23.1001	66.0000
23.1093	59.0000
23.1186	67.0000
23.1278	68.0000
23.1370	80.0000
23.1462	66.0000
23.1555	48.0000
23.1647	58.0000
23.1739	58.0000
23.1831	58.0000
23.1924	64.0000
23.2016	54.0000
23.2108	59.0000
23.2200	67.0000
23.2292	54.0000
23.2385	55.0000
23.2477	73.0000
23.2569	59.0000
23.2661	69.0000
23.2754	61.0000
23.2846	65.0000
23.2938	65.0000
23.3030	66.0000
23.3122	58.0000
23.3215	56.0000
23.3307	78.0000
23.3399	43.0000
23.3491	50.0000
23.3584	59.0000
23.3676	50.0000
23.3768	62.0000
23.3860	56.0000
23.3952	60.0000
23.4045	55.0000
23.4137	56.0000
23.4229	53.0000
23.4321	62.0000
23.4414	44.0000
23.4506	64.0000
23.4598	69.0000
23.4690	57.0000
23.4783	52.0000
23.4875	46.0000
23.4967	59.0000
23.5059	62.0000
23.5151	65.0000
23.5244	58.0000
23.5336	59.0000
23.5428	54.0000
23.5520	65.0000
23.5613	62.0000
23.5705	51.0000
23.5797	66.0000
23.5889	56.0000
23.5981	78.0000
23.6074	71.0000
23.6166	68.0000
23.6258	62.0000
23.6350	61.0000
23.6443	76.0000
23.6535	59.0000
23.6627	55.0000
23.6719	63.0000
23.6812	66.0000
23.6904	77.0000
23.6996	52.0000
23.7088	65.0000
23.7180	68.0000
23.7273	61.0000
23.7365	63.0000
23.7457	55.0000
23.7549	67.0000
23.7642	59.0000
23.7734	55.0000
23.7826	50.0000
23.7918	61.0000
23.8010	58.0000
23.8103	59.0000
23.8195	53.0000
23.8287	55.0000
23.8379	78.0000
23.8472	67.0000
23.8564	58.0000
23.8656	66.0000
23.8748	61.0000
23.8841	67.0000
23.8933	53.0000
23.9025	47.0000
23.9117	62.0000
23.9209	65.0000
23.9302	59.0000
23.9394	65.0000
23.9486	63.0000
23.9578	54.0000
23.9671	60.0000
23.9763	65.0000
23.9855	48.0000
23.9947	62.0000
24.0039	58.0000
24.0132	71.0000
24.0224	64.0000
24.0316	66.0000
24.0408	68.0000
24.0501	62.0000
24.0593	70.0000
24.0685	65.0000
24.0777	50.0000
24.0869	71.0000
24.0962	49.0000
24.1054	57.0000
24.1146	51.0000
24.1238	63.0000
24.1331	62.0000
24.1423	68.0000
24.1515	72.0000
24.1607	61.0000
24.1700	70.0000
24.1792	59.0000
24.1884	56.0000
24.1976	59.0000
24.2068	56.0000
24.2161	60.0000
24.2253	65.0000
24.2345	67.0000
24.2437	68.0000
24.2530	56.0000
24.2622	62.0000
24.2714	56.0000
24.2806	68.0000
24.2898	60.0000
24.2991	57.0000
24.3083	57.0000
24.3175	70.0000
24.3267	68.0000
24.3360	66.0000
24.3452	71.0000
24.3544	57.0000
24.3636	57.0000
24.3729	70.0000
24.3821	67.0000
24.3913	73.0000
24.4005	54.0000
24.4097	60.0000
24.4190	79.0000
24.4282	68.0000
24.4374	64.0000
24.4466	61.0000
24.4559	54.0000
24.4651	56.0000
24.4743	60.0000
24.4835	64.0000
24.4927	57.0000
24.5020	59.0000
24.5112	56.0000
24.5204	71.0000
24.5296	70.0000
24.5389	48.0000
24.5481	56.0000
24.5573	57.0000
24.5665	45.0000
24.5757	59.0000
24.5850	59.0000
24.5942	47.0000
24.6034	55.0000
24.6126	58.0000
24.6219	65.0000
24.6311	64.0000
24.6403	76.0000
24.6495	59.0000
24.6588	49.0000
24.6680	75.0000
24.6772	46.0000
24.6864	57.0000
24.6956	51.0000
24.7049	50.0000
24.7141	62.0000
24.7233	55.0000
24.7325	55.0000
24.7418	60.0000
24.7510	70.0000
24.7602	69.0000
24.7694	78.0000
24.7786	74.0000
24.7879	63.0000
24.7971	75.0000
24.8063	67.0000
24.8155	61.0000
24.8248	69.0000
24.8340	64.0000
24.8432	56.0000
24.8524	57.0000
24.8617	62.0000
24.8709	66.0000
24.8801	42.0000
24.8893	61.0000
24.8985	63.0000
24.9078	73.0000
24.9170	61.0000
24.9262	70.0000
24.9354	81.0000
24.9447	77.0000
24.9539	68.0000
24.9631	92.0000
24.9723	104.0000
24.9815	102.0000
24.9908	79.0000
25.0000	50.0000
25.0092	65.0000
25.0184	71.0000
25.0277	57.0000
25.0369	64.0000
25.0461	63.0000
25.0553	64.0000
25.0646	68.0000
25.0738	85.0000
25.0830	66.0000
25.0922	70.0000
25.1014	52.0000
25.1107	66.0000
25.1199	78.0000
25.1291	79.0000
25.1383	60.0000
25.1476	66.0000
25.1568	63.0000
25.1660	72.0000
25.1752	69.0000
25.1844	58.0000
25.1937	62.0000
25.2029	49.0000
25.2121	55.0000
25.2213	65.0000
25.2306	64.0000
25.2398	53.0000
25.2490	57.0000
25.2582	69.0000
25.2674	62.0000
25.2767	53.0000
25.2859	78.0000
25.2951	60.0000
25.3043	83.0000
25.3136	57.0000
25.3228	57.0000
25.3320	54.0000
25.3412	75.0000
25.3505	54.0000
25.3597	64.0000
25.3689	64.0000
25.3781	51.0000
25.3873	54.0000
25.3966	54.0000
25.4058	64.0000
25.4150	48.0000
25.4242	79.0000
25.4335	50.0000
25.4427	55.0000
25.4519	76.0000
25.4611	81.0000
25.4703	63.0000
25.4796	64.0000
25.4888	62.0000
25.4980	63.0000
25.5072	61.0000
25.5165	73.0000
25.5257	56.0000
25.5349	50.0000
25.5441	56.0000
25.5534	61.0000
25.5626	58.0000
25.5718	65.0000
25.5810	51.0000
25.5902	52.0000
25.5995	58.0000
25.6087	60.0000
25.6179	51.0000
25.6271	65.0000
25.6364	59.0000
25.6456	62.0000
25.6548	58.0000
25.6640	49.0000
25.6732	51.0000
25.6825	59.0000
25.6917	54.0000
25.7009	49.0000
25.7101	63.0000
25.7194	74.0000
25.7286	66.0000
25.7378	51.0000
25.7470	61.0000
25.7562	54.0000
25.7655	56.0000
25.7747	64.0000
25.7839	63.0000
25.7931	60.0000
25.8024	56.0000
25.8116	54.0000
25.8208	65.0000
25.8300	58.0000
25.8393	73.0000
25.8485	61.0000
25.8577	50.0000
25.8669	66.0000
25.8761	56.0000
25.8854	54.0000
25.8946	51.0000
25.9038	53.0000
25.9130	55.0000
25.9223	70.0000
25.9315	72.0000
25.9407	56.0000
25.9499	64.0000
25.9591	69.0000
25.9684	64.0000
25.9776	65.0000
25.9868	67.0000
25.9960	55.0000
26.0053	52.0000
26.0145	67.0000
26.0237	60.0000
26.0329	70.0000
26.0422	57.0000
26.0514	60.0000
26.0606	44.0000
26.0698	52.0000
26.0790	63.0000
26.0883	57.0000
26.0975	69.0000
26.1067	71.0000
26.1159	62.0000
26.1252	63.0000
26.1344	57.0000
26.1436	59.0000
26.1528	60.0000
26.1620	70.0000
26.1713	70.0000
26.1805	69.0000
26.1897	67.0000
26.1989	77.0000
26.2082	44.0000
26.2174	54.0000
26.2266	62.0000
26.2358	59.0000
26.2451	69.0000
26.2543	63.0000
26.2635	58.0000
26.2727	59.0000
26.2819	62.0000
26.2912	72.0000
26.3004	44.0000
26.3096	71.0000
26.3188	75.0000
26.3281	79.0000
26.3373	58.0000
26.3465	76.0000
26.3557	64.0000
26.3649	59.0000
26.3742	71.0000
26.3834	51.0000
26.3926	67.0000
26.4018	58.0000
26.4111	60.0000
26.4203	47.0000
26.4295	54.0000
26.4387	51.0000
26.4479	61.0000
26.4572	57.0000
26.4664	51.0000
26.4756	66.0000
26.4848	55.0000
26.4941	61.0000
26.5033	56.0000
26.5125	54.0000
26.5217	76.0000
26.5310	60.0000
26.5402	68.0000
26.5494	62.0000
26.5586	63.0000
26.5678	58.0000
26.5771	58.0000
26.5863	60.0000
26.5955	57.0000
26.6047	60.0000
26.6140	55.0000
26.6232	66.0000
26.6324	64.0000
26.6416	65.0000
26.6508	65.0000
26.6601	63.0000
26.6693	60.0000
26.6785	61.0000
26.6877	70.0000
26.6970	64.0000
26.7062	58.0000
26.7154	66.0000
26.7246	55.0000
26.7339	74.0000
26.7431	66.0000
26.7523	48.0000
26.7615	66.0000
26.7707	65.0000
26.7800	68.0000
26.7892	62.0000
26.7984	63.0000
26.8076	66.0000
26.8169	74.0000
26.8261	57.0000
26.8353	60.0000
26.8445	61.0000
26.8537	60.0000
26.8630	53.0000
26.8722	66.0000
26.8814	66.0000
26.8906	61.0000
26.8999	66.0000
26.9091	81.0000
26.9183	74.0000
26.9275	50.0000
26.9367	68.0000
26.9460	73.0000
26.9552	52.0000
26.9644	68.0000
26.9736	79.0000
26.9829	69.0000
26.9921	63.0000
27.0013	62.0000
27.0105	62.0000
27.0198	60.0000
27.0290	56.0000
27.0382	74.0000
27.0474	72.0000
27.0566	63.0000
27.0659	53.0000
27.0751	58.0000
27.0843	65.0000
27.0935	69.0000
27.1028	63.0000
27.1120	75.0000
27.1212	75.0000
27.1304	56.0000
27.1396	51.0000
27.1489	64.0000
27.1581	56.0000
27.1673	65.0000
27.1765	57.0000
27.1858	69.0000
27.1950	43.0000
27.2042	64.0000
27.2134	58.0000
27.2227	67.0000
27.2319	75.0000
27.2411	44.0000
27.2503	69.0000
27.2595	72.0000
27.2688	58.0000
27.2780	64.0000
27.2872	61.0000
27.2964	53.0000
27.3057	70.0000
27.3149	60.0000
27.3241	59.0000
27.3333	61.0000
27.3425	73.0000
27.3518	71.0000
27.3610	67.0000
27.3702	53.0000
27.3794	44.0000
27.3887	64.0000
27.3979	70.0000
27.4071	71.0000
27.4163	71.0000
27.4256	78.0000
27.4348	59.0000
27.4440	77.0000
27.4532	53.0000
27.4624	64.0000
27.4717	57.0000
27.4809	76.0000
27.4901	71.0000
27.4993	70.0000
27.5086	81.0000
27.5178	56.0000
27.5270	71.0000
27.5362	65.0000
27.5454	61.0000
27.5547	62.0000
27.5639	83.0000
27.5731	67.0000
27.5823	78.0000
27.5916	60.0000
27.6008	64.0000
27.6100	63.0000
27.6192	63.0000
27.6284	68.0000
27.6377	55.0000
27.6469	67.0000
27.6561	57.0000
27.6653	55.0000
27.6746	61.0000
27.6838	75.0000
27.6930	54.0000
27.7022	69.0000
27.7115	65.0000
27.7207	69.0000
27.7299	59.0000
27.7391	55.0000
27.7483	70.0000
27.7576	60.0000
27.7668	71.0000
27.7760	68.0000
27.7852	56.0000
27.7945	58.0000
27.8037	58.0000
27.8129	50.0000
27.8221	74.0000
27.8313	65.0000
27.8406	62.0000
27.8498	82.0000
27.8590	64.0000
27.8682	61.0000
27.8775	68.0000
27.8867	56.0000
27.8959	51.0000
27.9051	74.0000
27.9144	57.0000
27.9236	64.0000
27.9328	66.0000
27.9420	69.0000
27.9512	71.0000
27.9605	66.0000
27.9697	52.0000
27.9789	70.0000
27.9881	68.0000
27.9974	67.0000
28.0066	72.0000
28.0158	57.0000
28.0250	69.0000
28.0342	72.0000
28.0435	59.0000
28.0527	49.0000
28.0619	73.0000
28.0711	51.0000
28.0804	61.0000
28.0896	44.0000
28.0988	67.0000
28.1080	75.0000
28.1172	60.0000
28.1265	66.0000
28.1357	63.0000
28.1449	53.0000
28.1541	82.0000
28.1634	73.0000
28.1726	63.0000
28.1818	80.0000
28.1910	66.0000
28.2003	71.0000
28.2095	63.0000
28.2187	82.0000
28.2279	70.0000
28.2371	54.0000
28.2464	65.0000
28.2556	59.0000
28.2648	72.0000
28.2740	55.0000
28.2833	60.0000
28.2925	60.0000
28.3017	67.0000
28.3109	62.0000
28.3201	67.0000
28.3294	61.0000
28.3386	66.0000
28.3478	59.0000
28.3570	57.0000
28.3663	54.0000
28.3755	56.0000
28.3847	52.0000
28.3939	61.0000
28.4032	58.0000
28.4124	65.0000
28.4216	77.0000
28.4308	56.0000
28.4400	60.0000
28.4493	52.0000
28.4585	62.0000
28.4677	80.0000
28.4769	67.0000
28.4862	75.0000
28.4954	61.0000
28.5046	69.0000
28.5138	67.0000
28.5230	60.0000
28.5323	73.0000
28.5415	62.0000
28.5507	69.0000
28.5599	71.0000
28.5692	66.0000
28.5784	67.0000
28.5876	71.0000
28.5968	82.0000
28.6061	60.0000
28.6153	64.0000
28.6245	67.0000
28.6337	69.0000
28.6429	74.0000
28.6522	73.0000
28.6614	64.0000
28.6706	68.0000
28.6798	77.0000
28.6891	61.0000
28.6983	78.0000
28.7075	56.0000
28.7167	66.0000
28.7259	68.0000
28.7352	69.0000
28.7444	55.0000
28.7536	63.0000
28.7628	65.0000
28.7721	67.0000
28.7813	72.0000
28.7905	70.0000
28.7997	69.0000
28.8089	57.0000
28.8182	54.0000
28.8274	72.0000
28.8366	58.0000
28.8458	54.0000
28.8551	67.0000
28.8643	55.0000
28.8735	62.0000
28.8827	65.0000
28.8920	58.0000
28.9012	63.0000
28.9104	78.0000
28.9196	61.0000
28.9288	50.0000
28.9381	60.0000
28.9473	70.0000
28.9565	53.0000
28.9657	66.0000
28.9750	70.0000
28.9842	71.0000
28.9934	58.0000
29.0026	62.0000
29.0118	51.0000
29.0211	67.0000
29.0303	78.0000
29.0395	59.0000
29.0487	64.0000
29.0580	77.0000
29.0672	78.0000
29.0764	54.0000
29.0856	64.0000
29.0949	56.0000
29.1041	76.0000
29.1133	63.0000
29.1225	63.0000
29.1317	57.0000
29.1410	60.0000
29.1502	80.0000
29.1594	61.0000
29.1686	56.0000
29.1779	73.0000
29.1871	69.0000
29.1963	64.0000
29.2055	67.0000
29.2147	63.0000
29.2240	63.0000
29.2332	70.0000
29.2424	79.0000
29.2516	66.0000
29.2609	70.0000
29.2701	66.0000
29.2793	76.0000
29.2885	75.0000
29.2977	68.0000
29.3070	75.0000
29.3162	62.0000
29.3254	64.0000
29.3346	71.0000
29.3439	78.0000
29.3531	74.0000
29.3623	64.0000
29.3715	68.0000
29.3808	52.0000
29.3900	72.0000
29.3992	71.0000
29.4084	69.0000
29.4176	60.0000
29.4269	64.0000
29.4361	66.0000
29.4453	67.0000
29.4545	82.0000
29.4638	80.0000
29.4730	78.0000
29.4822	63.0000
29.4914	66.0000
29.5006	71.0000
29.5099	60.0000
29.5191	80.0000
29.5283	62.0000
29.5375	80.0000
29.5468	82.0000
29.5560	72.0000
29.5652	56.0000
29.5744	71.0000
29.5837	61.0000
29.5929	67.0000
29.6021	63.0000
29.6113	63.0000
29.6205	57.0000
29.6298	67.0000
29.6390	80.0000
29.6482	75.0000
29.6574	81.0000
29.6667	70.0000
29.6759	66.0000
29.6851	70.0000
29.6943	67.0000
29.7035	54.0000
29.7128	52.0000
29.7220	83.0000
29.7312	62.0000
29.7404	63.0000
29.7497	66.0000
29.7589	78.0000
29.7681	73.0000
29.7773	68.0000
29.7866	76.0000
29.7958	48.0000
29.8050	63.0000
29.8142	59.0000
29.8234	71.0000
29.8327	81.0000
29.8419	77.0000
29.8511	71.0000
29.8603	70.0000
29.8696	83.0000
29.8788	58.0000
29.8880	52.0000
29.8972	71.0000
29.9064	70.0000
29.9157	73.0000
29.9249	54.0000
29.9341	63.0000
29.9433	67.0000
29.9526	62.0000
29.9618	75.0000
29.9710	68.0000
29.9802	64.0000
29.9894	61.0000
29.9987	80.0000
30.0079	59.0000
30.0171	71.0000
30.0263	76.0000
30.0356	70.0000
30.0448	61.0000
30.0540	55.0000
30.0632	70.0000
30.0725	63.0000
30.0817	67.0000
30.0909	72.0000
30.1001	67.0000
30.1093	78.0000
30.1186	76.0000
30.1278	66.0000
30.1370	65.0000
30.1462	58.0000
30.1555	64.0000
30.1647	63.0000
30.1739	69.0000
30.1831	60.0000
30.1923	73.0000
30.2016	70.0000
30.2108	66.0000
30.2200	71.0000
30.2292	56.0000
30.2385	59.0000
30.2477	73.0000
30.2569	75.0000
30.2661	64.0000
30.2754	51.0000
30.2846	79.0000
30.2938	70.0000
30.3030	55.0000
30.3122	67.0000
30.3215	78.0000
30.3307	60.0000
30.3399	51.0000
30.3491	85.0000
30.3584	67.0000
30.3676	70.0000
30.3768	72.0000
30.3860	62.0000
30.3952	62.0000
30.4045	71.0000
30.4137	60.0000
30.4229	71.0000
30.4321	61.0000
30.4414	61.0000
30.4506	63.0000
30.4598	49.0000
30.4690	58.0000
30.4782	65.0000
30.4875	60.0000
30.4967	62.0000
30.5059	62.0000
30.5151	66.0000
30.5244	59.0000
30.5336	67.0000
30.5428	71.0000
30.5520	61.0000
30.5613	69.0000
30.5705	69.0000
30.5797	59.0000
30.5889	56.0000
30.5981	54.0000
30.6074	68.0000
30.6166	62.0000
30.6258	70.0000
30.6350	65.0000
30.6443	53.0000
30.6535	68.0000
30.6627	77.0000
30.6719	69.0000
30.6811	58.0000
30.6904	66.0000
30.6996	62.0000
30.7088	62.0000
30.7180	74.0000
30.7273	64.0000
30.7365	69.0000
30.7457	68.0000
30.7549	71.0000
30.7642	59.0000
30.7734	59.0000
30.7826	62.0000
30.7918	73.0000
30.8010	59.0000
30.8103	67.0000
30.8195	63.0000
30.8287	64.0000
30.8379	65.0000
30.8472	67.0000
30.8564	58.0000
30.8656	66.0000
30.8748	53.0000
30.8840	58.0000
30.8933	70.0000
30.9025	78.0000
30.9117	66.0000
30.9209	65.0000
30.9302	66.0000
30.9394	74.0000
30.9486	65.0000
30.9578	63.0000
30.9671	72.0000
30.9763	54.0000
30.9855	63.0000
30.9947	65.0000
31.0039	58.0000
31.0132	62.0000
31.0224	92.0000
31.0316	54.0000
31.0408	65.0000
31.0501	73.0000
31.0593	67.0000
31.0685	59.0000
31.0777	71.0000
31.0869	76.0000
31.0962	68.0000
31.1054	74.0000
31.1146	52.0000
31.1238	61.0000
31.1331	69.0000
31.1423	80.0000
31.1515	56.0000
31.1607	60.0000
31.1699	61.0000
31.1792	79.0000
31.1884	65.0000
31.1976	65.0000
31.2068	58.0000
31.2161	67.0000
31.2253	74.0000
31.2345	57.0000
31.2437	71.0000
31.2530	50.0000
31.2622	70.0000
31.2714	59.0000
31.2806	75.0000
31.2898	49.0000
31.2991	72.0000
31.3083	78.0000
31.3175	61.0000
31.3267	64.0000
31.3360	56.0000
31.3452	47.0000
31.3544	59.0000
31.3636	73.0000
31.3728	66.0000
31.3821	70.0000
31.3913	73.0000
31.4005	67.0000
31.4097	59.0000
31.4190	63.0000
31.4282	48.0000
31.4374	55.0000
31.4466	67.0000
31.4559	57.0000
31.4651	69.0000
31.4743	52.0000
31.4835	50.0000
31.4927	59.0000
31.5020	53.0000
31.5112	50.0000
31.5204	63.0000
31.5296	70.0000
31.5389	71.0000
31.5481	63.0000
31.5573	71.0000
31.5665	54.0000
31.5757	61.0000
31.5850	62.0000
31.5942	68.0000
31.6034	63.0000
31.6126	71.0000
31.6219	69.0000
31.6311	57.0000
31.6403	52.0000
31.6495	76.0000
31.6587	53.0000
31.6680	58.0000
31.6772	72.0000
31.6864	68.0000
31.6956	66.0000
31.7049	61.0000
31.7141	81.0000
31.7233	66.0000
31.7325	65.0000
31.7418	55.0000
31.7510	64.0000
31.7602	67.0000
31.7694	74.0000
31.7786	71.0000
31.7879	62.0000
31.7971	67.0000
31.8063	75.0000
31.8155	47.0000
31.8248	73.0000
31.8340	63.0000
31.8432	62.0000
31.8524	67.0000
31.8616	61.0000
31.8709	79.0000
31.8801	63.0000
31.8893	69.0000
31.8985	47.0000
31.9078	65.0000
31.9170	56.0000
31.9262	73.0000
31.9354	57.0000
31.9447	77.0000
31.9539	82.0000
31.9631	67.0000
31.9723	52.0000
31.9815	61.0000
31.9908	63.0000
32.0000	66.0000
32.0092	61.0000
32.0184	71.0000
32.0277	61.0000
32.0369	60.0000
32.0461	72.0000
32.0553	60.0000
32.0645	66.0000
32.0738	62.0000
32.0830	67.0000
32.0922	71.0000
32.1014	62.0000
32.1107	87.0000
32.1199	60.0000
32.1291	81.0000
32.1383	56.0000
32.1476	57.0000
32.1568	64.0000
32.1660	61.0000
32.1752	69.0000
32.1844	72.0000
32.1937	53.0000
32.2029	64.0000
32.2121	74.0000
32.2213	71.0000
32.2306	59.0000
32.2398	85.0000
32.2490	83.0000
32.2582	58.0000
32.2674	73.0000
32.2767	65.0000
32.2859	69.0000
32.2951	61.0000
32.3043	62.0000
32.3136	70.0000
32.3228	68.0000
32.3320	60.0000
32.3412	64.0000
32.3504	52.0000
32.3597	78.0000
32.3689	66.0000
32.3781	65.0000
32.3873	51.0000
32.3966	63.0000
32.4058	61.0000
32.4150	66.0000
32.4242	73.0000
32.4335	66.0000
32.4427	59.0000
32.4519	60.0000
32.4611	69.0000
32.4703	75.0000
32.4796	64.0000
32.4888	70.0000
32.4980	54.0000
32.5072	59.0000
32.5165	61.0000
32.5257	65.0000
32.5349	70.0000
32.5441	67.0000
32.5533	66.0000
32.5626	75.0000
32.5718	75.0000
32.5810	70.0000
32.5902	75.0000
32.5995	62.0000
32.6087	82.0000
32.6179	66.0000
32.6271	60.0000
32.6364	69.0000
32.6456	64.0000
32.6548	67.0000
32.6640	60.0000
32.6732	74.0000
32.6825	67.0000
32.6917	66.0000
32.7009	67.0000
32.7101	63.0000
32.7194	74.0000
32.7286	86.0000
32.7378	71.0000
32.7470	62.0000
32.7562	66.0000
32.7655	72.0000
32.7747	65.0000
32.7839	69.0000
32.7931	76.0000
32.8024	59.0000
32.8116	74.0000
32.8208	63.0000
32.8300	63.0000
32.8392	63.0000
32.8485	68.0000
32.8577	67.0000
32.8669	57.0000
32.8761	59.0000
32.8854	62.0000
32.8946	67.0000
32.9038	72.0000
32.9130	58.0000
32.9223	69.0000
32.9315	83.0000
32.9407	69.0000
32.9499	64.0000
32.9591	60.0000
32.9684	72.0000
32.9776	74.0000
32.9868	51.0000
32.9960	67.0000
33.0053	62.0000
33.0145	67.0000
33.0237	87.0000
33.0329	88.0000
33.0421	84.0000
33.0514	88.0000
33.0606	133.0000
33.0698	172.0000
33.0790	252.0000
33.0883	239.0000
33.0975	196.0000
33.1067	165.0000
33.1159	108.0000
33.1252	87.0000
33.1344	81.0000
33.1436	53.0000
33.1528	74.0000
33.1620	74.0000
33.1713	84.0000
33.1805	64.0000
33.1897	81.0000
33.1989	70.0000
33.2082	62.0000
33.2174	54.0000
33.2266	69.0000
33.2358	71.0000
33.2450	81.0000
33.2543	114.0000
33.2635	90.0000
33.2727	123.0000
33.2819	164.0000
33.2912	174.0000
33.3004	139.0000
33.3096	107.0000
33.3188	90.0000
33.3281	74.0000
33.3373	84.0000
33.3465	62.0000
33.3557	68.0000
33.3649	53.0000
33.3742	78.0000
33.3834	57.0000
33.3926	77.0000
33.4018	75.0000
33.4111	55.0000
33.4203	69.0000
33.4295	67.0000
33.4387	71.0000
33.4479	61.0000
33.4572	68.0000
33.4664	78.0000
33.4756	65.0000
33.4848	70.0000
33.4941	50.0000
33.5033	67.0000
33.5125	70.0000
33.5217	57.0000
33.5309	65.0000
33.5402	63.0000
33.5494	57.0000
33.5586	81.0000
33.5678	67.0000
33.5771	64.0000
33.5863	69.0000
33.5955	61.0000
33.6047	65.0000
33.6140	60.0000
33.6232	84.0000
33.6324	56.0000
33.6416	53.0000
33.6508	63.0000
33.6601	78.0000
33.6693	76.0000
33.6785	48.0000
33.6877	75.0000
33.6970	76.0000
33.7062	69.0000
33.7154	47.0000
33.7246	72.0000
33.7338	74.0000
33.7431	64.0000
33.7523	70.0000
33.7615	78.0000
33.7707	69.0000
33.7800	59.0000
33.7892	54.0000
33.7984	64.0000
33.8076	67.0000
33.8169	60.0000
33.8261	93.0000
33.8353	65.0000
33.8445	73.0000
33.8537	77.0000
33.8630	56.0000
33.8722	64.0000
33.8814	61.0000
33.8906	60.0000
33.8999	59.0000
33.9091	72.0000
33.9183	67.0000
33.9275	74.0000
33.9367	54.0000
33.9460	62.0000
33.9552	64.0000
33.9644	73.0000
33.9736	66.0000
33.9829	48.0000
33.9921	70.0000
34.0013	72.0000
34.0105	84.0000
34.0197	60.0000
34.0290	62.0000
34.0382	64.0000
34.0474	70.0000
34.0566	82.0000
34.0659	64.0000
34.0751	76.0000
34.0843	68.0000
34.0935	60.0000
34.1028	44.0000
34.1120	50.0000
34.1212	60.0000
34.1304	65.0000
34.1396	70.0000
34.1489	56.0000
34.1581	55.0000
34.1673	48.0000
34.1765	63.0000
34.1858	64.0000
34.1950	55.0000
34.2042	55.0000
34.2134	64.0000
34.2226	64.0000
34.2319	60.0000
34.2411	61.0000
34.2503	50.0000
34.2595	60.0000
34.2688	64.0000
34.2780	62.0000
34.2872	62.0000
34.2964	68.0000
34.3057	57.0000
34.3149	69.0000
34.3241	55.0000
34.3333	68.0000
34.3425	56.0000
34.3518	61.0000
34.3610	73.0000
34.3702	71.0000
34.3794	64.0000
34.3887	51.0000
34.3979	57.0000
34.4071	59.0000
34.4163	61.0000
34.4255	68.0000
34.4348	65.0000
34.4440	50.0000
34.4532	66.0000
34.4624	62.0000
34.4717	69.0000
34.4809	58.0000
34.4901	64.0000
34.4993	57.0000
34.5086	54.0000
34.5178	52.0000
34.5270	72.0000
34.5362	49.0000
34.5454	76.0000
34.5547	65.0000
34.5639	56.0000
34.5731	52.0000
34.5823	56.0000
34.5916	43.0000
34.6008	55.0000
34.6100	67.0000
34.6192	73.0000
34.6284	64.0000
34.6377	53.0000
34.6469	64.0000
34.6561	65.0000
34.6653	66.0000
34.6746	64.0000
34.6838	61.0000
34.6930	70.0000
34.7022	63.0000
34.7114	56.0000
34.7207	63.0000
34.7299	64.0000
34.7391	49.0000
34.7483	49.0000
34.7576	56.0000
34.7668	68.0000
34.7760	65.0000
34.7852	68.0000
34.7945	65.0000
34.8037	63.0000
34.8129	63.0000
34.8221	70.0000
34.8313	58.0000
34.8406	54.0000
34.8498	69.0000
34.8590	58.0000
34.8682	60.0000
34.8775	50.0000
34.8867	61.0000
34.8959	61.0000
34.9051	50.0000
34.9143	56.0000
34.9236	52.0000
34.9328	66.0000
34.9420	52.0000
34.9512	65.0000
34.9605	65.0000
34.9697	48.0000
34.9789	65.0000
34.9881	65.0000
34.9974	61.0000
35.0066	62.0000
35.0158	64.0000
35.0250	64.0000
35.0342	53.0000
35.0435	53.0000
35.0527	61.0000
35.0619	59.0000
35.0711	63.0000
35.0804	59.0000
35.0896	42.0000
35.0988	54.0000
35.1080	56.0000
35.1172	63.0000
35.1265	53.0000
35.1357	62.0000
35.1449	44.0000
35.1541	69.0000
35.1634	73.0000
35.1726	57.0000
35.1818	58.0000
35.1910	60.0000
35.2002	69.0000
35.2095	49.0000
35.2187	61.0000
35.2279	56.0000
35.2371	49.0000
35.2464	54.0000
35.2556	45.0000
35.2648	66.0000
35.2740	53.0000
35.2833	64.0000
35.2925	53.0000
35.3017	57.0000
35.3109	56.0000
35.3201	54.0000
35.3294	61.0000
35.3386	54.0000
35.3478	58.0000
35.3570	48.0000
35.3663	51.0000
35.3755	54.0000
35.3847	62.0000
35.3939	57.0000
35.4031	45.0000
35.4124	56.0000
35.4216	51.0000
35.4308	46.0000
35.4400	54.0000
35.4493	56.0000
35.4585	46.0000
35.4677	58.0000
35.4769	53.0000
35.4862	52.0000
35.4954	52.0000
35.5046	65.0000
35.5138	55.0000
35.5230	56.0000
35.5323	47.0000
35.5415	45.0000
35.5507	46.0000
35.5599	51.0000
35.5692	54.0000
35.5784	53.0000
35.5876	64.0000
35.5968	59.0000
35.6060	53.0000
35.6153	56.0000
35.6245	49.0000
35.6337	49.0000
35.6429	59.0000
35.6522	41.0000
35.6614	59.0000
35.6706	38.0000
35.6798	60.0000
35.6891	63.0000
35.6983	76.0000
35.7075	55.0000
35.7167	47.0000
35.7259	43.0000
35.7352	53.0000
35.7444	54.0000
35.7536	53.0000
35.7628	50.0000
35.7721	51.0000
35.7813	49.0000
35.7905	55.0000
35.7997	51.0000
35.8089	44.0000
35.8182	41.0000
35.8274	61.0000
35.8366	51.0000
35.8458	51.0000
35.8551	51.0000
35.8643	62.0000
35.8735	51.0000
35.8827	46.0000
35.8919	62.0000
35.9012	40.0000
35.9104	53.0000
35.9196	48.0000
35.9288	44.0000
35.9381	46.0000
35.9473	51.0000
35.9565	48.0000
35.9657	51.0000
35.9750	41.0000
35.9842	45.0000
35.9934	42.0000
36.0026	57.0000
36.0118	45.0000
36.0211	48.0000
36.0303	48.0000
36.0395	46.0000
36.0487	42.0000
36.0580	40.0000
36.0672	50.0000
36.0764	38.0000
36.0856	48.0000
36.0948	42.0000
36.1041	43.0000
36.1133	37.0000
36.1225	39.0000
36.1317	44.0000
36.1410	38.0000
36.1502	41.0000
36.1594	46.0000
36.1686	31.0000
36.1779	49.0000
36.1871	47.0000
36.1963	51.0000
36.2055	55.0000
36.2147	45.0000
36.2240	47.0000
36.2332	40.0000
36.2424	44.0000
36.2516	45.0000
36.2609	56.0000
36.2701	54.0000
36.2793	39.0000
36.2885	53.0000
36.2977	42.0000
36.3070	44.0000
36.3162	55.0000
36.3254	54.0000
36.3346	53.0000
36.3439	39.0000
36.3531	53.0000
36.3623	44.0000
36.3715	46.0000
36.3807	49.0000
36.3900	46.0000
36.3992	47.0000
36.4084	38.0000
36.4176	47.0000
36.4269	47.0000
36.4361	42.0000
36.4453	50.0000
36.4545	43.0000
36.4638	52.0000
36.4730	61.0000
36.4822	55.0000
36.4914	35.0000
36.5006	49.0000
36.5099	56.0000
36.5191	37.0000
36.5283	45.0000
36.5375	41.0000
36.5468	48.0000
36.5560	52.0000
36.5652	37.0000
36.5744	41.0000
36.5836	44.0000
36.5929	42.0000
36.6021	54.0000
36.6113	48.0000
36.6205	55.0000
36.6298	49.0000
36.6390	45.0000
36.6482	35.0000
36.6574	48.0000
36.6667	52.0000
36.6759	38.0000
36.6851	44.0000
36.6943	38.0000
36.7035	46.0000
36.7128	42.0000
36.7220	41.0000
36.7312	41.0000
36.7404	40.0000
36.7497	49.0000
36.7589	41.0000
36.7681	48.0000
36.7773	36.0000
36.7865	39.0000
36.7958	46.0000
36.8050	57.0000
36.8142	60.0000
36.8234	46.0000
36.8327	32.0000
36.8419	33.0000
36.8511	35.0000
36.8603	40.0000
36.8696	35.0000
36.8788	35.0000
36.8880	45.0000
36.8972	40.0000
36.9064	49.0000
36.9157	38.0000
36.9249	42.0000
36.9341	28.0000
36.9433	45.0000
36.9526	44.0000
36.9618	41.0000
36.9710	41.0000
36.9802	29.0000
36.9894	41.0000
36.9987	37.0000
37.0079	39.0000
37.0171	39.0000
37.0263	39.0000
37.0356	45.0000
37.0448	35.0000
37.0540	34.0000
37.0632	34.0000
37.0724	39.0000
37.0817	40.0000
37.0909	38.0000
37.1001	49.0000
37.1093	45.0000
37.1186	44.0000
37.1278	44.0000
37.1370	38.0000
37.1462	50.0000
37.1555	33.0000
37.1647	41.0000
37.1739	27.0000
37.1831	57.0000
37.1923	44.0000
37.2016	51.0000
37.2108	46.0000
37.2200	40.0000
37.2292	52.0000
37.2385	40.0000
37.2477	39.0000
37.2569	32.0000
37.2661	38.0000
37.2753	42.0000
37.2846	39.0000
37.2938	46.0000
37.3030	33.0000
37.3122	51.0000
37.3215	43.0000
37.3307	41.0000
37.3399	36.0000
37.3491	34.0000
37.3584	46.0000
37.3676	30.0000
37.3768	44.0000
37.3860	37.0000
37.3952	49.0000
37.4045	31.0000
37.4137	36.0000
37.4229	35.0000
37.4321	36.0000
37.4414	46.0000
37.4506	40.0000
37.4598	50.0000
37.4690	40.0000
37.4782	35.0000
37.4875	31.0000
37.4967	48.0000
37.5059	40.0000
37.5151	49.0000
37.5244	42.0000
37.5336	40.0000
37.5428	29.0000
37.5520	44.0000
37.5612	33.0000
37.5705	39.0000
37.5797	40.0000
37.5889	38.0000
37.5981	30.0000
37.6074	41.0000
37.6166	43.0000
37.6258	31.0000
37.6350	39.0000
37.6443	43.0000
37.6535	45.0000
37.6627	38.0000
37.6719	32.0000
37.6811	29.0000
37.6904	33.0000
37.6996	32.0000
37.7088	35.0000
37.7180	35.0000
37.7273	33.0000
37.7365	33.0000
37.7457	25.0000
37.7549	31.0000
37.7641	51.0000
37.7734	38.0000
37.7826	39.0000
37.7918	30.0000
37.8010	48.0000
37.8103	32.0000
37.8195	32.0000
37.8287	34.0000
37.8379	31.0000
37.8472	29.0000
37.8564	31.0000
37.8656	39.0000
37.8748	34.0000
37.8840	27.0000
37.8933	35.0000
37.9025	30.0000
37.9117	23.0000
37.9209	31.0000
37.9302	43.0000
37.9394	38.0000
37.9486	26.0000
37.9578	34.0000
37.9670	40.0000
37.9763	46.0000
37.9855	47.0000
37.9947	31.0000
38.0039	34.0000
38.0132	38.0000
38.0224	38.0000
38.0316	30.0000
38.0408	39.0000
38.0501	38.0000
38.0593	47.0000
38.0685	27.0000
38.0777	38.0000
38.0869	30.0000
38.0962	29.0000
38.1054	25.0000
38.1146	39.0000
38.1238	53.0000
38.1331	37.0000
38.1423	35.0000
38.1515	40.0000
38.1607	39.0000
38.1699	34.0000
38.1792	41.0000
38.1884	31.0000
38.1976	34.0000
38.2068	30.0000
38.2161	38.0000
38.2253	27.0000
38.2345	37.0000
38.2437	36.0000
38.2529	42.0000
38.2622	29.0000
38.2714	45.0000
38.2806	39.0000
38.2898	37.0000
38.2991	31.0000
38.3083	34.0000
38.3175	44.0000
38.3267	30.0000
38.3360	43.0000
38.3452	53.0000
38.3544	28.0000
38.3636	38.0000
38.3728	48.0000
38.3821	28.0000
38.3913	47.0000
38.4005	31.0000
38.4097	27.0000
38.4190	24.0000
38.4282	39.0000
38.4374	35.0000
38.4466	40.0000
38.4558	39.0000
38.4651	34.0000
38.4743	33.0000
38.4835	37.0000
38.4927	33.0000
38.5020	39.0000
38.5112	33.0000
38.5204	37.0000
38.5296	40.0000
38.5389	40.0000
38.5481	44.0000
38.5573	33.0000
38.5665	37.0000
38.5757	37.0000
38.5850	48.0000
38.5942	33.0000
38.6034	31.0000
38.6126	31.0000
38.6219	33.0000
38.6311	17.0000
38.6403	39.0000
38.6495	45.0000
38.6587	35.0000
38.6680	39.0000
38.6772	24.0000
38.6864	41.0000
38.6956	33.0000
38.7049	46.0000
38.7141	37.0000
38.7233	34.0000
38.7325	40.0000
38.7417	39.0000
38.7510	37.0000
38.7602	35.0000
38.7694	34.0000
38.7786	41.0000
38.7879	45.0000
38.7971	36.0000
38.8063	35.0000
38.8155	35.0000
38.8248	39.0000
38.8340	35.0000
38.8432	35.0000
38.8524	32.0000
38.8616	44.0000
38.8709	35.0000
38.8801	37.0000
38.8893	35.0000
38.8985	38.0000
38.9078	27.0000
38.9170	27.0000
38.9262	42.0000
38.9354	29.0000
38.9446	37.0000
38.9539	36.0000
38.9631	49.0000
38.9723	45.0000
38.9815	31.0000
38.9908	46.0000
39.0000	31.0000
39.0092	35.0000
39.0184	40.0000
39.0277	30.0000
39.0369	38.0000
39.0461	25.0000
39.0553	35.0000
39.0645	44.0000
39.0738	29.0000
39.0830	45.0000
39.0922	25.0000
39.1014	29.0000
39.1107	34.0000
39.1199	42.0000
39.1291	32.0000
39.1383	39.0000
39.1475	33.0000
39.1568	31.0000
39.1660	35.0000
39.1752	45.0000
39.1844	29.0000
39.1937	33.0000
39.2029	36.0000
39.2121	31.0000
39.2213	23.0000
39.2306	33.0000
39.2398	35.0000
39.2490	29.0000
39.2582	34.0000
39.2674	33.0000
39.2767	40.0000
39.2859	37.0000
39.2951	42.0000
39.3043	31.0000
39.3136	42.0000
39.3228	29.0000
39.3320	27.0000
39.3412	21.0000
39.3504	36.0000
39.3597	42.0000
39.3689	38.0000
39.3781	40.0000
39.3873	27.0000
39.3966	47.0000
39.4058	29.0000
39.4150	36.0000
39.4242	28.0000
39.4334	40.0000
39.4427	39.0000
39.4519	47.0000
39.4611	46.0000
39.4703	25.0000
39.4796	32.0000
39.4888	33.0000
39.4980	36.0000
39.5072	37.0000
39.5165	33.0000
39.5257	39.0000
39.5349	25.0000
39.5441	40.0000
39.5533	29.0000
39.5626	31.0000
39.5718	35.0000
39.5810	48.0000
39.5902	41.0000
39.5995	41.0000
39.6087	48.0000
39.6179	46.0000
39.6271	70.0000
39.6363	71.0000
39.6456	85.0000
39.6548	103.0000
39.6640	142.0000
39.6732	197.0000
39.6825	293.0000
39.6917	211.0000
39.7009	213.0000
39.7101	132.0000
39.7194	91.0000
39.7286	66.0000
39.7378	58.0000
39.7470	45.0000
39.7562	58.0000
39.7655	38.0000
39.7747	38.0000
39.7839	35.0000
39.7931	46.0000
39.8024	34.0000
39.8116	40.0000
39.8208	29.0000
39.8300	39.0000
39.8392	29.0000
39.8485	31.0000
39.8577	44.0000
39.8669	45.0000
39.8761	63.0000
39.8854	55.0000
39.8946	69.0000
39.9038	88.0000
39.9130	112.0000
39.9222	138.0000
39.9315	137.0000
39.9407	138.0000
39.9499	104.0000
39.9591	81.0000
39.9684	63.0000
39.9776	46.0000
39.9868	44.0000
39.9960	51.0000
40.0053	40.0000
40.0145	36.0000
40.0237	40.0000
40.0329	29.0000
40.0421	37.0000
40.0514	40.0000
40.0606	44.0000
40.0698	44.0000
40.0790	33.0000
40.0883	43.0000
40.0975	35.0000
40.1067	35.0000
40.1159	35.0000
40.1251	37.0000
40.1344	46.0000
40.1436	34.0000
40.1528	28.0000
40.1620	37.0000
40.1713	32.0000
40.1805	34.0000
40.1897	45.0000
40.1989	38.0000
40.2082	33.0000
40.2174	33.0000
40.2266	37.0000
40.2358	36.0000
40.2450	41.0000
40.2543	33.0000
40.2635	34.0000
40.2727	40.0000
40.2819	47.0000
40.2912	33.0000
40.3004	27.0000
40.3096	32.0000
40.3188	35.0000
40.3280	18.0000
40.3373	36.0000
40.3465	29.0000
40.3557	30.0000
40.3649	32.0000
40.3742	36.0000
40.3834	31.0000
40.3926	24.0000
40.4018	39.0000
40.4111	33.0000
40.4203	34.0000
40.4295	28.0000
40.4387	47.0000
40.4479	35.0000
40.4572	36.0000
40.4664	42.0000
40.4756	29.0000
40.4848	33.0000
40.4941	29.0000
40.5033	28.0000
40.5125	33.0000
40.5217	27.0000
40.5309	26.0000
40.5402	37.0000
40.5494	30.0000
40.5586	30.0000
40.5678	40.0000
40.5771	36.0000
40.5863	40.0000
40.5955	40.0000
40.6047	33.0000
40.6139	38.0000
40.6232	35.0000
40.6324	31.0000
40.6416	34.0000
40.6508	29.0000
40.6601	37.0000
40.6693	38.0000
40.6785	38.0000
40.6877	33.0000
40.6970	28.0000
40.7062	24.0000
40.7154	33.0000
40.7246	27.0000
40.7338	26.0000
40.7431	30.0000
40.7523	49.0000
40.7615	24.0000
40.7707	42.0000
40.7800	38.0000
40.7892	50.0000
40.7984	32.0000
40.8076	36.0000
40.8168	28.0000
40.8261	26.0000
40.8353	36.0000
40.8445	22.0000
40.8537	35.0000
40.8630	48.0000
40.8722	44.0000
40.8814	38.0000
40.8906	39.0000
40.8999	25.0000
40.9091	33.0000
40.9183	27.0000
40.9275	28.0000
40.9367	30.0000
40.9460	30.0000
40.9552	34.0000
40.9644	37.0000
40.9736	35.0000
40.9829	39.0000
40.9921	42.0000
41.0013	40.0000
41.0105	41.0000
41.0197	43.0000
41.0290	29.0000
41.0382	45.0000
41.0474	44.0000
41.0566	29.0000
41.0659	31.0000
41.0751	29.0000
41.0843	39.0000
41.0935	29.0000
41.1027	29.0000
41.1120	27.0000
41.1212	31.0000
41.1304	35.0000
41.1396	31.0000
41.1489	27.0000
41.1581	35.0000
41.1673	33.0000
41.1765	31.0000
41.1858	29.0000
41.1950	37.0000
41.2042	29.0000
41.2134	41.0000
41.2226	26.0000
41.2319	32.0000
41.2411	33.0000
41.2503	26.0000
41.2595	26.0000
41.2688	26.0000
41.2780	27.0000
41.2872	32.0000
41.2964	36.0000
41.3056	36.0000
41.3149	44.0000
41.3241	32.0000
41.3333	25.0000
41.3425	35.0000
41.3518	42.0000
41.3610	35.0000
41.3702	36.0000
41.3794	43.0000
41.3887	26.0000
41.3979	25.0000
41.4071	40.0000
41.4163	36.0000
41.4255	41.0000
41.4348	32.0000
41.4440	43.0000
41.4532	33.0000
41.4624	34.0000
41.4717	36.0000
41.4809	35.0000
41.4901	33.0000
41.4993	41.0000
41.5085	35.0000
41.5178	31.0000
41.5270	47.0000
41.5362	35.0000
41.5454	39.0000
41.5547	38.0000
41.5639	34.0000
41.5731	19.0000
41.5823	36.0000
41.5915	30.0000
41.6008	38.0000
41.6100	32.0000
41.6192	21.0000
41.6284	39.0000
41.6377	30.0000
41.6469	32.0000
41.6561	35.0000
41.6653	32.0000
41.6746	32.0000
41.6838	30.0000
41.6930	33.0000
41.7022	31.0000
41.7114	23.0000
41.7207	35.0000
41.7299	27.0000
41.7391	32.0000
41.7483	31.0000
41.7576	30.0000
41.7668	39.0000
41.7760	35.0000
41.7852	29.0000
41.7944	36.0000
41.8037	38.0000
41.8129	41.0000
41.8221	43.0000
41.8313	30.0000
41.8406	27.0000
41.8498	34.0000
41.8590	38.0000
41.8682	32.0000
41.8775	37.0000
41.8867	30.0000
41.8959	33.0000
41.9051	37.0000
41.9143	42.0000
41.9236	42.0000
41.9328	39.0000
41.9420	30.0000
41.9512	34.0000
41.9605	37.0000
41.9697	35.0000
41.9789	31.0000
41.9881	40.0000
41.9973	21.0000
42.0066	31.0000
42.0158	30.0000
42.0250	30.0000
42.0342	42.0000
42.0435	27.0000
42.0527	40.0000
42.0619	32.0000
42.0711	37.0000
42.0804	33.0000
42.0896	30.0000
42.0988	34.0000
42.1080	33.0000
42.1172	32.0000
42.1265	37.0000
42.1357	31.0000
42.1449	39.0000
42.1541	34.0000
42.1634	28.0000
42.1726	38.0000
42.1818	38.0000
42.1910	33.0000
42.2002	42.0000
42.2095	29.0000
42.2187	49.0000
42.2279	37.0000
42.2371	32.0000
42.2464	25.0000
42.2556	34.0000
42.2648	28.0000
42.2740	27.0000
42.2832	29.0000
42.2925	30.0000
42.3017	28.0000
42.3109	46.0000
42.3201	35.0000
42.3294	24.0000
42.3386	28.0000
42.3478	32.0000
42.3570	34.0000
42.3663	27.0000
42.3755	36.0000
42.3847	34.0000
42.3939	42.0000
42.4031	31.0000
42.4124	29.0000
42.4216	36.0000
42.4308	36.0000
42.4400	45.0000
42.4493	42.0000
42.4585	28.0000
42.4677	32.0000
42.4769	37.0000
42.4861	40.0000
42.4954	23.0000
42.5046	35.0000
42.5138	42.0000
42.5230	29.0000
42.5323	31.0000
42.5415	23.0000
42.5507	32.0000
42.5599	41.0000
42.5692	36.0000
42.5784	33.0000
42.5876	39.0000
42.5968	26.0000
42.6060	36.0000
42.6153	32.0000
42.6245	38.0000
42.6337	31.0000
42.6429	38.0000
42.6522	38.0000
42.6614	37.0000
42.6706	25.0000
42.6798	30.0000
42.6890	35.0000
42.6983	23.0000
42.7075	38.0000
42.7167	30.0000
42.7259	28.0000
42.7352	35.0000
42.7444	26.0000
42.7536	25.0000
42.7628	27.0000
42.7720	43.0000
42.7813	34.0000
42.7905	28.0000
42.7997	36.0000
42.8089	38.0000
42.8182	34.0000
42.8274	31.0000
42.8366	25.0000
42.8458	36.0000
42.8551	31.0000
42.8643	37.0000
42.8735	51.0000
42.8827	31.0000
42.8919	40.0000
42.9012	24.0000
42.9104	37.0000
42.9196	27.0000
42.9288	33.0000
42.9381	36.0000
42.9473	38.0000
42.9565	37.0000
42.9657	33.0000
42.9749	32.0000
42.9842	35.0000
42.9934	33.0000
43.0026	42.0000
43.0118	29.0000
43.0211	31.0000
43.0303	33.0000
43.0395	43.0000
43.0487	47.0000
43.0580	30.0000
43.0672	32.0000
43.0764	33.0000
43.0856	28.0000
43.0948	39.0000
43.1041	40.0000
43.1133	23.0000
43.1225	36.0000
43.1317	35.0000
43.1410	45.0000
43.1502	40.0000
43.1594	37.0000
43.1686	38.0000
43.1778	26.0000
43.1871	45.0000
43.1963	40.0000
43.2055	27.0000
43.2147	46.0000
43.2240	33.0000
43.2332	42.0000
43.2424	40.0000
43.2516	26.0000
43.2609	42.0000
43.2701	48.0000
43.2793	37.0000
43.2885	31.0000
43.2977	43.0000
43.3070	39.0000
43.3162	39.0000
43.3254	63.0000
43.3346	64.0000
43.3439	62.0000
43.3531	96.0000
43.3623	138.0000
43.3715	176.0000
43.3807	169.0000
43.3900	155.0000
43.3992	99.0000
43.4084	60.0000
43.4176	51.0000
43.4269	54.0000
43.4361	39.0000
43.4453	45.0000
43.4545	47.0000
43.4637	42.0000
43.4730	34.0000
43.4822	37.0000
43.4914	32.0000
43.5006	34.0000
43.5099	36.0000
43.5191	27.0000
43.5283	43.0000
43.5375	28.0000
43.5468	33.0000
43.5560	27.0000
43.5652	28.0000
43.5744	34.0000
43.5836	44.0000
43.5929	44.0000
43.6021	43.0000
43.6113	48.0000
43.6205	65.0000
43.6298	89.0000
43.6390	95.0000
43.6482	111.0000
43.6574	90.0000
43.6666	80.0000
43.6759	44.0000
43.6851	40.0000
43.6943	41.0000
43.7035	40.0000
43.7128	32.0000
43.7220	38.0000
43.7312	49.0000
43.7404	23.0000
43.7497	42.0000
43.7589	37.0000
43.7681	24.0000
43.7773	45.0000
43.7865	31.0000
43.7958	43.0000
43.8050	26.0000
43.8142	36.0000
43.8234	36.0000
43.8327	35.0000
43.8419	39.0000
43.8511	36.0000
43.8603	41.0000
43.8695	33.0000
43.8788	27.0000
43.8880	34.0000
43.8972	22.0000
43.9064	29.0000
43.9157	42.0000
43.9249	31.0000
43.9341	36.0000
43.9433	26.0000
43.9525	22.0000
43.9618	21.0000
43.9710	32.0000
43.9802	32.0000
43.9894	31.0000
43.9987	30.0000
44.0079	32.0000
44.0171	49.0000
44.0263	43.0000
44.0356	39.0000
44.0448	29.0000
44.0540	44.0000
44.0632	36.0000
44.0724	28.0000
44.0817	29.0000
44.0909	36.0000
44.1001	29.0000
44.1093	23.0000
44.1186	23.0000
44.1278	29.0000
44.1370	23.0000
44.1462	27.0000
44.1554	30.0000
44.1647	43.0000
44.1739	30.0000
44.1831	20.0000
44.1923	32.0000
44.2016	32.0000
44.2108	32.0000
44.2200	28.0000
44.2292	26.0000
44.2385	31.0000
44.2477	34.0000
44.2569	42.0000
44.2661	21.0000
44.2753	38.0000
44.2846	20.0000
44.2938	37.0000
44.3030	40.0000
44.3122	39.0000
44.3215	30.0000
44.3307	24.0000
44.3399	31.0000
44.3491	30.0000
44.3583	28.0000
44.3676	31.0000
44.3768	39.0000
44.3860	20.0000
44.3952	36.0000
44.4045	34.0000
44.4137	36.0000
44.4229	24.0000
44.4321	27.0000
44.4414	36.0000
44.4506	32.0000
44.4598	38.0000
44.4690	34.0000
44.4782	21.0000
44.4875	35.0000
44.4967	39.0000
44.5059	30.0000
44.5151	33.0000
44.5244	33.0000
44.5336	28.0000
44.5428	31.0000
44.5520	37.0000
44.5612	20.0000
44.5705	24.0000
44.5797	26.0000
44.5889	41.0000
44.5981	38.0000
44.6074	38.0000
44.6166	33.0000
44.6258	26.0000
44.6350	29.0000
44.6442	32.0000
44.6535	26.0000
44.6627	28.0000
44.6719	29.0000
44.6811	27.0000
44.6904	28.0000
44.6996	38.0000
44.7088	30.0000
44.7180	33.0000
44.7273	27.0000
44.7365	37.0000
44.7457	26.0000
44.7549	30.0000
44.7641	39.0000
44.7734	31.0000
44.7826	27.0000
44.7918	31.0000
44.8010	26.0000
44.8103	28.0000
44.8195	30.0000
44.8287	26.0000
44.8379	42.0000
44.8471	34.0000
44.8564	27.0000
44.8656	33.0000
44.8748	39.0000
44.8840	36.0000
44.8933	29.0000
44.9025	31.0000
44.9117	31.0000
44.9209	33.0000
44.9302	23.0000
44.9394	40.0000
44.9486	36.0000
44.9578	25.0000
44.9670	38.0000
44.9763	22.0000
44.9855	30.0000
44.9947	29.0000
45.0039	22.0000
45.0132	30.0000
45.0224	25.0000
45.0316	36.0000
45.0408	34.0000
45.0500	23.0000
45.0593	30.0000
45.0685	36.0000
45.0777	30.0000
45.0869	41.0000
45.0962	33.0000
45.1054	29.0000
45.1146	30.0000
45.1238	36.0000
45.1330	30.0000
45.1423	26.0000
45.1515	25.0000
45.1607	30.0000
45.1699	33.0000
45.1792	24.0000
45.1884	34.0000
45.1976	27.0000
45.2068	34.0000
45.2161	38.0000
45.2253	32.0000
45.2345	27.0000
45.2437	30.0000
45.2529	27.0000
45.2622	43.0000
45.2714	40.0000
45.2806	41.0000
45.2898	36.0000
45.2991	24.0000
45.3083	33.0000
45.3175	27.0000
45.3267	29.0000
45.3359	32.0000
45.3452	30.0000
45.3544	40.0000
45.3636	28.0000
45.3728	31.0000
45.3821	35.0000
45.3913	33.0000
45.4005	35.0000
45.4097	29.0000
45.4190	23.0000
45.4282	27.0000
45.4374	43.0000
45.4466	23.0000
45.4558	29.0000
45.4651	30.0000
45.4743	34.0000
45.4835	25.0000
45.4927	16.0000
45.5020	31.0000
45.5112	31.0000
45.5204	24.0000
45.5296	27.0000
45.5388	28.0000
45.5481	32.0000
45.5573	29.0000
45.5665	21.0000
45.5757	27.0000
45.5850	34.0000
45.5942	34.0000
45.6034	32.0000
45.6126	41.0000
45.6219	25.0000
45.6311	30.0000
45.6403	35.0000
45.6495	20.0000
45.6587	37.0000
45.6680	38.0000
45.6772	31.0000
45.6864	24.0000
45.6956	33.0000
45.7049	29.0000
45.7141	30.0000
45.7233	24.0000
45.7325	28.0000
45.7417	28.0000
45.7510	27.0000
45.7602	26.0000
45.7694	40.0000
45.7786	35.0000
45.7879	32.0000
45.7971	24.0000
45.8063	28.0000
45.8155	35.0000
45.8247	28.0000
45.8340	30.0000
45.8432	35.0000
45.8524	32.0000
45.8616	33.0000
45.8709	28.0000
45.8801	30.0000
45.8893	24.0000
45.8985	29.0000
45.9078	37.0000
45.9170	27.0000
45.9262	23.0000
45.9354	38.0000
45.9446	22.0000
45.9539	23.0000
45.9631	18.0000
45.9723	27.0000
45.9815	22.0000
45.9908	18.0000
46.0000	35.0000
46.0092	26.0000
46.0184	24.0000
46.0276	24.0000
46.0369	32.0000
46.0461	17.0000
46.0553	24.0000
46.0645	41.0000
46.0738	39.0000
46.0830	29.0000
46.0922	25.0000
46.1014	21.0000
46.1107	34.0000
46.1199	17.0000
46.1291	30.0000
46.1383	21.0000
46.1475	29.0000
46.1568	27.0000
46.1660	30.0000
46.1752	33.0000
46.1844	32.0000
46.1937	33.0000
46.2029	30.0000
46.2121	33.0000
46.2213	15.0000
46.2305	33.0000
46.2398	31.0000
46.2490	23.0000
46.2582	23.0000
46.2674	26.0000
46.2767	37.0000
46.2859	26.0000
46.2951	21.0000
46.3043	29.0000
46.3135	40.0000
46.3228	23.0000
46.3320	28.0000
46.3412	33.0000
46.3504	26.0000
46.3597	24.0000
46.3689	28.0000
46.3781	29.0000
46.3873	31.0000
46.3966	32.0000
46.4058	31.0000
46.4150	37.0000
46.4242	25.0000
46.4334	25.0000
46.4427	25.0000
46.4519	36.0000
46.4611	33.0000
46.4703	30.0000
46.4796	18.0000
46.4888	33.0000
46.4980	31.0000
46.5072	24.0000
46.5164	30.0000
46.5257	27.0000
46.5349	29.0000
46.5441	26.0000
46.5533	33.0000
46.5626	25.0000
46.5718	26.0000
46.5810	29.0000
46.5902	32.0000
46.5995	21.0000
46.6087	30.0000
46.6179	24.0000
46.6271	23.0000
46.6363	37.0000
46.6456	27.0000
46.6548	34.0000
46.6640	20.0000
46.6732	24.0000
46.6825	22.0000
46.6917	16.0000
46.7009	31.0000
46.7101	32.0000
46.7193	24.0000
46.7286	27.0000
46.7378	26.0000
46.7470	27.0000
46.7562	27.0000
46.7655	17.0000
46.7747	32.0000
46.7839	25.0000
46.7931	29.0000
46.8024	27.0000
46.8116	33.0000
46.8208	36.0000
46.8300	29.0000
46.8392	25.0000
46.8485	34.0000
46.8577	26.0000
46.8669	23.0000
46.8761	24.0000
46.8854	35.0000
46.8946	23.0000
46.9038	29.0000
46.9130	22.0000
46.9222	32.0000
46.9315	28.0000
46.9407	39.0000
46.9499	15.0000
46.9591	18.0000
46.9684	25.0000
46.9776	38.0000
46.9868	37.0000
46.9960	33.0000
47.0052	29.0000
47.0145	26.0000
47.0237	25.0000
47.0329	23.0000
47.0421	23.0000
47.0514	28.0000
47.0606	31.0000
47.0698	28.0000
47.0790	30.0000
47.0883	22.0000
47.0975	31.0000
47.1067	22.0000
47.1159	22.0000
47.1251	32.0000
47.1344	27.0000
47.1436	33.0000
47.1528	24.0000
47.1620	35.0000
47.1713	27.0000
47.1805	24.0000
47.1897	24.0000
47.1989	28.0000
47.2081	29.0000
47.2174	30.0000
47.2266	22.0000
47.2358	33.0000
47.2450	23.0000
47.2543	30.0000
47.2635	16.0000
47.2727	26.0000
47.2819	24.0000
47.2912	28.0000
47.3004	33.0000
47.3096	25.0000
47.3188	19.0000
47.3280	25.0000
47.3373	25.0000
47.3465	34.0000
47.3557	25.0000
47.3649	17.0000
47.3742	23.0000
47.3834	16.0000
47.3926	18.0000
47.4018	18.0000
47.4110	21.0000
47.4203	28.0000
47.4295	30.0000
47.4387	23.0000
47.4479	28.0000
47.4572	26.0000
47.4664	33.0000
47.4756	28.0000
47.4848	22.0000
47.4940	28.0000
47.5033	26.0000
47.5125	26.0000
47.5217	33.0000
47.5309	24.0000
47.5402	36.0000
47.5494	28.0000
47.5586	28.0000
47.5678	21.0000
47.5771	25.0000
47.5863	19.0000
47.5955	33.0000
47.6047	26.0000
47.6139	27.0000
47.6232	35.0000
47.6324	17.0000
47.6416	33.0000
47.6508	23.0000
47.6601	25.0000
47.6693	24.0000
47.6785	28.0000
47.6877	21.0000
47.6969	26.0000
47.7062	21.0000
47.7154	23.0000
47.7246	29.0000
47.7338	26.0000
47.7431	24.0000
47.7523	25.0000
47.7615	33.0000
47.7707	23.0000
47.7800	21.0000
47.7892	24.0000
47.7984	18.0000
47.8076	22.0000
47.8168	20.0000
47.8261	26.0000
47.8353	26.0000
47.8445	24.0000
47.8537	18.0000
47.8630	31.0000
47.8722	26.0000
47.8814	23.0000
47.8906	26.0000
47.8998	24.0000
47.9091	19.0000
47.9183	27.0000
47.9275	25.0000
47.9367	31.0000
47.9460	22.0000
47.9552	25.0000
47.9644	27.0000
47.9736	35.0000
47.9829	30.0000
47.9921	22.0000
48.0013	32.0000
