11.0000	578.0000
11.0092	542.0000
11.0184	549.0000
11.0277	541.0000
11.0369	518.0000
11.0461	548.0000
11.0553	547.0000
11.0646	527.0000
11.0738	529.0000
11.0830	540.0000
11.0922	480.0000
11.1014	498.0000
11.1107	522.0000
11.1199	495.0000
11.1291	539.0000
11.1383	520.0000
11.1476	537.0000
11.1568	531.0000
11.1660	469.0000
11.1752	492.0000
11.1845	505.0000
11.1937	506.0000
11.2029	531.0000
11.2121	527.0000
11.2213	486.0000
11.2306	521.0000
11.2398	504.0000
11.2490	445.0000
11.2582	472.0000
11.2675	484.0000
11.2767	532.0000
11.2859	502.0000
11.2951	512.0000
11.3043	475.0000
11.3136	510.0000
11.3228	493.0000
11.3320	455.0000
11.3412	452.0000
11.3505	490.0000
11.3597	473.0000
11.3689	456.0000
11.3781	501.0000
11.3874	481.0000
11.3966	483.0000
11.4058	477.0000
11.4150	446.0000
11.4242	503.0000
11.4335	476.0000
11.4427	476.0000
11.4519	448.0000
11.4611	476.0000
11.4704	504.0000
11.4796	508.0000
11.4888	454.0000
11.4980	435.0000
11.5072	472.0000
11.5165	502.0000
11.5257	482.0000
11.5349	481.0000
11.5441	466.0000
11.5534	451.0000
11.5626	459.0000
11.5718	479.0000
11.5810	427.0000
11.5902	416.0000
11.5995	429.0000
11.6087	464.0000
11.6179	472.0000
11.6271	460.0000
11.6364	461.0000
11.6456	509.0000
11.6548	427.0000
11.6640	465.0000
11.6733	451.0000
11.6825	424.0000
11.6917	492.0000
11.7009	399.0000
11.7101	448.0000
11.7194	447.0000
11.7286	398.0000
11.7378	435.0000
11.7470	407.0000
11.7563	425.0000
11.7655	400.0000
11.7747	385.0000
11.7839	442.0000
11.7931	417.0000
11.8024	458.0000
11.8116	460.0000
11.8208	411.0000
11.8300	434.0000
11.8393	429.0000
11.8485	437.0000
11.8577	409.0000
11.8669	437.0000
11.8762	377.0000
11.8854	426.0000
11.8946	422.0000
11.9038	409.0000
11.9130	420.0000
11.9223	377.0000
11.9315	413.0000
11.9407	407.0000
11.9499	373.0000
11.9592	386.0000
11.9684	388.0000
11.9776	385.0000
11.9868	397.0000
11.9960	401.0000
12.0053	356.0000
12.0145	369.0000
12.0237	389.0000
12.0329	398.0000
12.0422	385.0000
12.0514	397.0000
12.0606	355.0000
12.0698	374.0000
12.0791	386.0000
12.0883	396.0000
12.0975	421.0000
12.1067	372.0000
12.1159	380.0000
12.1252	404.0000
12.1344	396.0000
12.1436	381.0000
12.1528	402.0000
12.1621	368.0000
12.1713	398.0000
12.1805	375.0000
12.1897	374.0000
12.1989	395.0000
12.2082	370.0000
12.2174	357.0000
12.2266	372.0000
12.2358	401.0000
12.2451	389.0000
12.2543	383.0000
12.2635	357.0000
12.2727	344.0000
12.2819	393.0000
12.2912	361.0000
12.3004	355.0000
12.3096	358.0000
12.3188	335.0000
12.3281	357.0000
12.3373	400.0000
12.3465	340.0000
12.3557	372.0000
12.3650	393.0000
12.3742	340.0000
12.3834	394.0000
12.3926	367.0000
12.4018	333.0000
12.4111	347.0000
12.4203	374.0000
12.4295	356.0000
12.4387	367.0000
12.4480	359.0000
12.4572	369.0000
12.4664	360.0000
12.4756	335.0000
12.4848	395.0000
12.4941	355.0000
12.5033	325.0000
12.5125	336.0000
12.5217	343.0000
12.5310	332.0000
12.5402	332.0000
12.5494	355.0000
12.5586	308.0000
12.5679	361.0000
12.5771	364.0000
12.5863	342.0000
12.5955	312.0000
12.6047	326.0000
12.6140	364.0000
12.6232	369.0000
12.6324	325.0000
12.6416	340.0000
12.6509	361.0000
12.6601	318.0000
12.6693	340.0000
12.6785	362.0000
12.6877	331.0000
12.6970	321.0000
12.7062	322.0000
12.7154	341.0000
12.7246	335.0000
12.7339	342.0000
12.7431	313.0000
12.7523	336.0000
12.7615	313.0000
12.7707	320.0000
12.7800	309.0000
12.7892	325.0000
12.7984	326.0000
12.8076	342.0000
12.8169	307.0000
12.8261	337.0000
12.8353	317.0000
12.8445	352.0000
12.8538	309.0000
12.8630	306.0000
12.8722	337.0000
12.8814	313.0000
12.8906	338.0000
12.8999	304.0000
12.9091	310.0000
12.9183	327.0000
12.9275	327.0000
12.9368	338.0000
12.9460	332.0000
12.9552	317.0000
12.9644	333.0000
12.9736	312.0000
12.9829	316.0000
12.9921	316.0000
13.0013	300.0000
13.0105	304.0000
13.0198	332.0000
13.0290	319.0000
13.0382	314.0000
13.0474	278.0000
13.0567	295.0000
13.0659	288.0000
13.0751	306.0000
13.0843	298.0000
13.0935	289.0000
13.1028	273.0000
13.1120	305.0000
13.1212	281.0000
13.1304	283.0000
13.1397	295.0000
13.1489	307.0000
13.1581	286.0000
13.1673	292.0000
13.1765	296.0000
13.1858	322.0000
13.1950	296.0000
13.2042	291.0000
13.2134	307.0000
13.2227	270.0000
13.2319	314.0000
13.2411	293.0000
13.2503	326.0000
13.2596	273.0000
13.2688	297.0000
13.2780	308.0000
13.2872	303.0000
13.2964	281.0000
13.3057	285.0000
13.3149	309.0000
13.3241	299.0000
13.3333	271.0000
13.3426	307.0000
13.3518	297.0000
13.3610	236.0000
13.3702	276.0000
13.3794	275.0000
13.3887	278.0000
13.3979	301.0000
13.4071	290.0000
13.4163	293.0000
13.4256	264.0000
13.4348	292.0000
13.4440	285.0000
13.4532	268.0000
13.4624	272.0000
13.4717	283.0000
13.4809	249.0000
13.4901	279.0000
13.4993	282.0000
13.5086	286.0000
13.5178	269.0000
13.5270	266.0000
13.5362	282.0000
13.5455	263.0000
13.5547	303.0000
13.5639	252.0000
13.5731	275.0000
13.5823	282.0000
13.5916	269.0000
13.6008	295.0000
13.6100	268.0000
13.6192	257.0000
13.6285	264.0000
13.6377	289.0000
13.6469	259.0000
13.6561	285.0000
13.6653	276.0000
13.6746	261.0000
13.6838	258.0000
13.6930	274.0000
13.7022	313.0000
13.7115	291.0000
13.7207	253.0000
13.7299	246.0000
13.7391	271.0000
13.7484	272.0000
13.7576	264.0000
13.7668	269.0000
13.7760	263.0000
13.7852	276.0000
13.7945	256.0000
13.8037	256.0000
13.8129	265.0000
13.8221	266.0000
13.8314	244.0000
13.8406	278.0000
13.8498	259.0000
13.8590	247.0000
13.8682	295.0000
13.8775	293.0000
13.8867	271.0000
13.8959	246.0000
13.9051	253.0000
13.9144	294.0000
13.9236	255.0000
13.9328	249.0000
13.9420	295.0000
13.9512	281.0000
13.9605	249.0000
13.9697	244.0000
13.9789	245.0000
13.9881	246.0000
13.9974	246.0000
14.0066	241.0000
14.0158	248.0000
14.0250	263.0000
14.0343	231.0000
14.0435	270.0000
14.0527	256.0000
14.0619	239.0000
14.0711	239.0000
14.0804	256.0000
14.0896	233.0000
14.0988	256.0000
14.1080	258.0000
14.1173	281.0000
14.1265	260.0000
14.1357	227.0000
14.1449	276.0000
14.1541	266.0000
14.1634	261.0000
14.1726	246.0000
14.1818	229.0000
14.1910	288.0000
14.2003	281.0000
14.2095	235.0000
14.2187	245.0000
14.2279	248.0000
14.2372	251.0000
14.2464	253.0000
14.2556	259.0000
14.2648	248.0000
14.2740	230.0000
14.2833	238.0000
14.2925	241.0000
14.3017	235.0000
14.3109	247.0000
14.3202	250.0000
14.3294	238.0000
14.3386	247.0000
14.3478	239.0000
14.3570	254.0000
14.3663	219.0000
14.3755	216.0000
14.3847	243.0000
14.3939	237.0000
14.4032	269.0000
14.4124	258.0000
14.4216	256.0000
14.4308	231.0000
14.4401	248.0000
14.4493	237.0000
14.4585	217.0000
14.4677	247.0000
14.4769	248.0000
14.4862	244.0000
14.4954	224.0000
14.5046	237.0000
14.5138	240.0000
14.5231	236.0000
14.5323	219.0000
14.5415	232.0000
14.5507	245.0000
14.5599	216.0000
14.5692	244.0000
14.5784	229.0000
14.5876	227.0000
14.5968	210.0000
14.6061	257.0000
14.6153	204.0000
14.6245	227.0000
14.6337	223.0000
14.6429	246.0000
14.6522	240.0000
14.6614	251.0000
14.6706	246.0000
14.6798	232.0000
14.6891	270.0000
14.6983	218.0000
14.7075	243.0000
14.7167	236.0000
14.7260	232.0000
14.7352	227.0000
14.7444	248.0000
14.7536	219.0000
14.7628	250.0000
14.7721	257.0000
14.7813	222.0000
14.7905	246.0000
14.7997	236.0000
14.8090	218.0000
14.8182	249.0000
14.8274	226.0000
14.8366	229.0000
14.8458	237.0000
14.8551	210.0000
14.8643	233.0000
14.8735	241.0000
14.8827	230.0000
14.8920	214.0000
14.9012	228.0000
14.9104	229.0000
14.9196	227.0000
14.9289	201.0000
14.9381	241.0000
14.9473	194.0000
14.9565	212.0000
14.9657	209.0000
14.9750	200.0000
14.9842	198.0000
14.9934	202.0000
15.0026	222.0000
15.0119	251.0000
15.0211	224.0000
15.0303	224.0000
15.0395	201.0000
15.0487	214.0000
15.0580	218.0000
15.0672	219.0000
15.0764	228.0000
15.0856	207.0000
15.0949	217.0000
15.1041	246.0000
15.1133	228.0000
15.1225	196.0000
15.1317	209.0000
15.1410	231.0000
15.1502	208.0000
15.1594	222.0000
15.1686	206.0000
15.1779	206.0000
15.1871	252.0000
15.1963	202.0000
15.2055	223.0000
15.2148	203.0000
15.2240	240.0000
15.2332	225.0000
15.2424	214.0000
15.2516	215.0000
15.2609	230.0000
15.2701	205.0000
15.2793	217.0000
15.2885	214.0000
15.2978	241.0000
15.3070	214.0000
15.3162	245.0000
15.3254	213.0000
15.3346	208.0000
15.3439	207.0000
15.3531	200.0000
15.3623	238.0000
15.3715	241.0000
15.3808	236.0000
15.3900	194.0000
15.3992	188.0000
15.4084	232.0000
15.4177	229.0000
15.4269	229.0000
15.4361	235.0000
15.4453	214.0000
15.4545	222.0000
15.4638	225.0000
15.4730	213.0000
15.4822	207.0000
15.4914	220.0000
15.5007	172.0000
15.5099	197.0000
15.5191	179.0000
15.5283	200.0000
15.5375	227.0000
15.5468	221.0000
15.5560	214.0000
15.5652	180.0000
15.5744	219.0000
15.5837	207.0000
15.5929	214.0000
15.6021	196.0000
15.6113	203.0000
15.6206	234.0000
15.6298	197.0000
15.6390	199.0000
15.6482	199.0000
15.6574	204.0000
15.6667	221.0000
15.6759	215.0000
15.6851	228.0000
15.6943	200.0000
15.7036	210.0000
15.7128	180.0000
15.7220	202.0000
15.7312	196.0000
15.7404	185.0000
15.7497	207.0000
15.7589	208.0000
15.7681	202.0000
15.7773	173.0000
15.7866	189.0000
15.7958	185.0000
15.8050	202.0000
15.8142	182.0000
15.8234	219.0000
15.8327	183.0000
15.8419	220.0000
15.8511	168.0000
15.8603	178.0000
15.8696	200.0000
15.8788	218.0000
15.8880	183.0000
15.8972	203.0000
15.9065	195.0000
15.9157	193.0000
15.9249	200.0000
15.9341	204.0000
15.9433	203.0000
15.9526	172.0000
15.9618	216.0000
15.9710	175.0000
15.9802	172.0000
15.9895	212.0000
15.9987	189.0000
16.0079	205.0000
16.0171	194.0000
16.0263	190.0000
16.0356	211.0000
16.0448	200.0000
16.0540	200.0000
16.0632	191.0000
16.0725	205.0000
16.0817	230.0000
16.0909	195.0000
16.1001	208.0000
16.1094	177.0000
16.1186	193.0000
16.1278	196.0000
16.1370	201.0000
16.1462	189.0000
16.1555	192.0000
16.1647	179.0000
16.1739	187.0000
16.1831	197.0000
16.1924	192.0000
16.2016	195.0000
16.2108	213.0000
16.2200	208.0000
16.2292	184.0000
16.2385	205.0000
16.2477	183.0000
16.2569	199.0000
16.2661	211.0000
16.2754	186.0000
16.2846	187.0000
16.2938	195.0000
16.3030	171.0000
16.3122	199.0000
16.3215	197.0000
16.3307	195.0000
16.3399	177.0000
16.3491	185.0000
16.3584	184.0000
16.3676	199.0000
16.3768	187.0000
16.3860	213.0000
16.3953	220.0000
16.4045	185.0000
16.4137	182.0000
16.4229	195.0000
16.4321	207.0000
16.4414	197.0000
16.4506	172.0000
16.4598	199.0000
16.4690	218.0000
16.4783	199.0000
16.4875	188.0000
16.4967	184.0000
16.5059	175.0000
16.5151	181.0000
16.5244	191.0000
16.5336	208.0000
16.5428	167.0000
16.5520	172.0000
16.5613	196.0000
16.5705	213.0000
16.5797	192.0000
16.5889	202.0000
16.5982	187.0000
16.6074	188.0000
16.6166	172.0000
16.6258	180.0000
16.6350	180.0000
16.6443	156.0000
16.6535	170.0000
16.6627	185.0000
16.6719	178.0000
16.6812	192.0000
16.6904	188.0000
16.6996	167.0000
16.7088	165.0000
16.7180	170.0000
16.7273	178.0000
16.7365	150.0000
16.7457	188.0000
16.7549	201.0000
16.7642	169.0000
16.7734	168.0000
16.7826	162.0000
16.7918	180.0000
16.8011	163.0000
16.8103	156.0000
16.8195	180.0000
16.8287	188.0000
16.8379	174.0000
16.8472	191.0000
16.8564	165.0000
16.8656	168.0000
16.8748	164.0000
16.8841	178.0000
16.8933	184.0000
16.9025	170.0000
16.9117	154.0000
16.9209	176.0000
16.9302	168.0000
16.9394	163.0000
16.9486	186.0000
16.9578	194.0000
16.9671	204.0000
16.9763	179.0000
16.9855	170.0000
16.9947	169.0000
17.0039	164.0000
17.0132	188.0000
17.0224	171.0000
17.0316	179.0000
17.0408	205.0000
17.0501	200.0000
17.0593	179.0000
17.0685	160.0000
17.0777	182.0000
17.0870	189.0000
17.0962	156.0000
17.1054	164.0000
17.1146	164.0000
17.1238	175.0000
17.1331	162.0000
17.1423	182.0000
17.1515	172.0000
17.1607	171.0000
17.1700	178.0000
17.1792	165.0000
17.1884	176.0000
17.1976	183.0000
17.2068	163.0000
17.2161	178.0000
17.2253	169.0000
17.2345	185.0000
17.2437	181.0000
17.2530	156.0000
17.2622	180.0000
17.2714	168.0000
17.2806	143.0000
17.2899	170.0000
17.2991	162.0000
17.3083	155.0000
17.3175	180.0000
17.3267	182.0000
17.3360	156.0000
17.3452	164.0000
17.3544	148.0000
17.3636	176.0000
17.3729	176.0000
17.3821	166.0000
17.3913	169.0000
17.4005	161.0000
17.4097	183.0000
17.4190	158.0000
17.4282	162.0000
17.4374	165.0000
17.4466	168.0000
17.4559	164.0000
17.4651	148.0000
17.4743	158.0000
17.4835	164.0000
17.4927	166.0000
17.5020	163.0000
17.5112	163.0000
17.5204	146.0000
17.5296	138.0000
17.5389	174.0000
17.5481	148.0000
17.5573	160.0000
17.5665	163.0000
17.5758	142.0000
17.5850	145.0000
17.5942	139.0000
17.6034	160.0000
17.6126	162.0000
17.6219	163.0000
17.6311	170.0000
17.6403	170.0000
17.6495	196.0000
17.6588	146.0000
17.6680	146.0000
17.6772	148.0000
17.6864	142.0000
17.6956	174.0000
17.7049	160.0000
17.7141	144.0000
17.7233	129.0000
17.7325	177.0000
17.7418	149.0000
17.7510	159.0000
17.7602	157.0000
17.7694	152.0000
17.7787	168.0000
17.7879	143.0000
17.7971	156.0000
17.8063	160.0000
17.8155	165.0000
17.8248	166.0000
17.8340	156.0000
17.8432	196.0000
17.8524	181.0000
17.8617	158.0000
17.8709	153.0000
17.8801	148.0000
17.8893	165.0000
17.8985	130.0000
17.9078	125.0000
17.9170	138.0000
17.9262	180.0000
17.9354	148.0000
17.9447	164.0000
17.9539	141.0000
17.9631	134.0000
17.9723	137.0000
17.9816	143.0000
17.9908	146.0000
18.0000	161.0000
18.0092	138.0000
18.0184	146.0000
18.0277	171.0000
18.0369	154.0000
18.0461	158.0000
18.0553	132.0000
18.0646	142.0000
18.0738	154.0000
18.0830	149.0000
18.0922	139.0000
18.1014	148.0000
18.1107	153.0000
18.1199	144.0000
18.1291	153.0000
18.1383	117.0000
18.1476	146.0000
18.1568	154.0000
18.1660	155.0000
18.1752	138.0000
18.1844	149.0000
18.1937	150.0000
18.2029	128.0000
18.2121	153.0000
18.2213	157.0000
18.2306	158.0000
18.2398	157.0000
18.2490	153.0000
18.2582	157.0000
18.2675	175.0000
18.2767	163.0000
18.2859	158.0000
18.2951	157.0000
18.3043	179.0000
18.3136	162.0000
18.3228	162.0000
18.3320	148.0000
18.3412	149.0000
18.3505	152.0000
18.3597	152.0000
18.3689	140.0000
18.3781	162.0000
18.3873	173.0000
18.3966	157.0000
18.4058	158.0000
18.4150	155.0000
18.4242	162.0000
18.4335	137.0000
18.4427	121.0000
18.4519	171.0000
18.4611	145.0000
18.4704	153.0000
18.4796	139.0000
18.4888	128.0000
18.4980	152.0000
18.5072	154.0000
18.5165	146.0000
18.5257	143.0000
18.5349	139.0000
18.5441	148.0000
18.5534	149.0000
18.5626	133.0000
18.5718	147.0000
18.5810	144.0000
18.5902	160.0000
18.5995	135.0000
18.6087	143.0000
18.6179	173.0000
18.6271	145.0000
18.6364	134.0000
18.6456	156.0000
18.6548	162.0000
18.6640	159.0000
18.6732	158.0000
18.6825	144.0000
18.6917	153.0000
18.7009	143.0000
18.7101	135.0000
18.7194	127.0000
18.7286	135.0000
18.7378	143.0000
18.7470	138.0000
18.7563	155.0000
18.7655	125.0000
18.7747	136.0000
18.7839	145.0000
18.7931	170.0000
18.8024	147.0000
18.8116	151.0000
18.8208	146.0000
18.8300	142.0000
18.8393	143.0000
18.8485	150.0000
18.8577	155.0000
18.8669	129.0000
18.8761	158.0000
18.8854	161.0000
18.8946	164.0000
18.9038	136.0000
18.9130	142.0000
18.9223	160.0000
18.9315	161.0000
18.9407	156.0000
18.9499	139.0000
18.9592	163.0000
18.9684	153.0000
18.9776	144.0000
18.9868	149.0000
18.9960	161.0000
19.0053	159.0000
19.0145	143.0000
19.0237	164.0000
19.0329	147.0000
19.0422	133.0000
19.0514	140.0000
19.0606	129.0000
19.0698	169.0000
19.0790	152.0000
19.0883	157.0000
19.0975	141.0000
19.1067	156.0000
19.1159	145.0000
19.1252	146.0000
19.1344	146.0000
19.1436	156.0000
19.1528	171.0000
19.1621	136.0000
19.1713	148.0000
19.1805	146.0000
19.1897	161.0000
19.1989	153.0000
19.2082	147.0000
19.2174	151.0000
19.2266	142.0000
19.2358	155.0000
19.2451	150.0000
19.2543	160.0000
19.2635	150.0000
19.2727	131.0000
19.2819	151.0000
19.2912	158.0000
19.3004	159.0000
19.3096	152.0000
19.3188	156.0000
19.3281	153.0000
19.3373	172.0000
19.3465	139.0000
19.3557	165.0000
19.3649	164.0000
19.3742	139.0000
19.3834	164.0000
19.3926	152.0000
19.4018	141.0000
19.4111	161.0000
19.4203	152.0000
19.4295	136.0000
19.4387	151.0000
19.4480	167.0000
19.4572	149.0000
19.4664	167.0000
19.4756	137.0000
19.4848	134.0000
19.4941	135.0000
19.5033	141.0000
19.5125	155.0000
19.5217	151.0000
19.5310	142.0000
19.5402	161.0000
19.5494	130.0000
19.5586	116.0000
19.5678	158.0000
19.5771	157.0000
19.5863	172.0000
19.5955	176.0000
19.6047	149.0000
19.6140	150.0000
19.6232	152.0000
19.6324	134.0000
19.6416	163.0000
19.6509	144.0000
19.6601	155.0000
19.6693	158.0000
19.6785	133.0000
19.6877	132.0000
19.6970	156.0000
19.7062	165.0000
19.7154	148.0000
19.7246	176.0000
19.7339	148.0000
19.7431	145.0000
19.7523	126.0000
19.7615	147.0000
19.7707	150.0000
19.7800	133.0000
19.7892	142.0000
19.7984	139.0000
19.8076	157.0000
19.8169	129.0000
19.8261	139.0000
19.8353	120.0000
19.8445	165.0000
19.8537	162.0000
19.8630	160.0000
19.8722	152.0000
19.8814	159.0000
19.8906	150.0000
19.8999	144.0000
19.9091	158.0000
19.9183	125.0000
19.9275	147.0000
19.9368	149.0000
19.9460	139.0000
19.9552	125.0000
19.9644	175.0000
19.9736	143.0000
19.9829	181.0000
19.9921	145.0000
20.0013	163.0000
20.0105	164.0000
20.0198	164.0000
20.0290	156.0000
20.0382	164.0000
20.0474	168.0000
20.0566	163.0000
20.0659	149.0000
20.0751	156.0000
20.0843	146.0000
20.0935	191.0000
20.1028	166.0000
20.1120	155.0000
20.1212	146.0000
20.1304	164.0000
20.1397	157.0000
20.1489	150.0000
20.1581	132.0000
20.1673	163.0000
20.1765	159.0000
20.1858	153.0000
20.1950	149.0000
20.2042	143.0000
20.2134	160.0000
20.2227	153.0000
20.2319	143.0000
20.2411	147.0000
20.2503	181.0000
20.2595	145.0000
20.2688	144.0000
20.2780	153.0000
20.2872	143.0000
20.2964	148.0000
20.3057	155.0000
20.3149	157.0000
20.3241	154.0000
20.3333	138.0000
20.3426	170.0000
20.3518	162.0000
20.3610	144.0000
20.3702	151.0000
20.3794	141.0000
20.3887	162.0000
20.3979	166.0000
20.4071	151.0000
20.4163	174.0000
20.4256	150.0000
20.4348	159.0000
20.4440	164.0000
20.4532	140.0000
20.4624	144.0000
20.4717	149.0000
20.4809	167.0000
20.4901	171.0000
20.4993	174.0000
20.5086	157.0000
20.5178	151.0000
20.5270	174.0000
20.5362	150.0000
20.5454	134.0000
20.5547	147.0000
20.5639	142.0000
20.5731	158.0000
20.5823	159.0000
20.5916	161.0000
20.6008	164.0000
20.6100	162.0000
20.6192	150.0000
20.6285	161.0000
20.6377	142.0000
20.6469	168.0000
20.6561	173.0000
20.6653	158.0000
20.6746	162.0000
20.6838	164.0000
20.6930	153.0000
20.7022	163.0000
20.7115	144.0000
20.7207	153.0000
20.7299	140.0000
20.7391	152.0000
20.7483	153.0000
20.7576	151.0000
20.7668	164.0000
20.7760	151.0000
20.7852	185.0000
20.7945	163.0000
20.8037	165.0000
20.8129	157.0000
20.8221	146.0000
20.8314	155.0000
20.8406	138.0000
20.8498	141.0000
20.8590	136.0000
20.8682	143.0000
20.8775	144.0000
20.8867	170.0000
20.8959	176.0000
20.9051	161.0000
20.9144	174.0000
20.9236	141.0000
20.9328	146.0000
20.9420	179.0000
20.9512	140.0000
20.9605	158.0000
20.9697	142.0000
20.9789	164.0000
20.9881	140.0000
20.9974	152.0000
21.0066	144.0000
21.0158	148.0000
21.0250	165.0000
21.0342	167.0000
21.0435	148.0000
21.0527	151.0000
21.0619	157.0000
21.0711	161.0000
21.0804	166.0000
21.0896	146.0000
21.0988	180.0000
21.1080	189.0000
21.1173	168.0000
21.1265	167.0000
21.1357	163.0000
21.1449	159.0000
21.1541	161.0000
21.1634	159.0000
21.1726	192.0000
21.1818	154.0000
21.1910	181.0000
21.2003	183.0000
21.2095	195.0000
21.2187	191.0000
21.2279	197.0000
21.2371	229.0000
21.2464	250.0000
21.2556	378.0000
21.2648	569.0000
21.2740	984.0000
21.2833	1386.0000
21.2925	1483.0000
21.3017	1097.0000
21.3109	700.0000
21.3202	429.0000
21.3294	299.0000
21.3386	241.0000
21.3478	196.0000
21.3570	209.0000
21.3663	226.0000
21.3755	256.0000
21.3847	309.0000
21.3939	479.0000
21.4032	647.0000
21.4124	881.0000
21.4216	903.0000
21.4308	632.0000
21.4400	405.0000
21.4493	264.0000
21.4585	229.0000
21.4677	203.0000
21.4769	186.0000
21.4862	164.0000
21.4954	179.0000
21.5046	149.0000
21.5138	188.0000
21.5231	163.0000
21.5323	156.0000
21.5415	154.0000
21.5507	160.0000
21.5599	133.0000
21.5692	157.0000
21.5784	159.0000
21.5876	164.0000
21.5968	166.0000
21.6061	158.0000
21.6153	156.0000
21.6245	161.0000
21.6337	163.0000
21.6429	153.0000
21.6522	135.0000
21.6614	161.0000
21.6706	142.0000
21.6798	139.0000
21.6891	126.0000
21.6983	161.0000
21.7075	162.0000
21.7167	138.0000
21.7259	163.0000
21.7352	162.0000
21.7444	158.0000
21.7536	169.0000
21.7628	164.0000
21.7721	135.0000
21.7813	159.0000
21.7905	164.0000
21.7997	143.0000
21.8090	149.0000
21.8182	168.0000
21.8274	128.0000
21.8366	144.0000
21.8458	180.0000
21.8551	138.0000
21.8643	143.0000
21.8735	144.0000
21.8827	163.0000
21.8920	160.0000
21.9012	170.0000
21.9104	175.0000
21.9196	155.0000
21.9288	173.0000
21.9381	139.0000
21.9473	136.0000
21.9565	165.0000
21.9657	169.0000
21.9750	141.0000
21.9842	168.0000
21.9934	144.0000
22.0026	151.0000
22.0119	168.0000
22.0211	165.0000
22.0303	142.0000
22.0395	159.0000
22.0487	142.0000
22.0580	174.0000
22.0672	144.0000
22.0764	178.0000
22.0856	165.0000
22.0949	142.0000
22.1041	159.0000
22.1133	176.0000
22.1225	145.0000
22.1317	149.0000
22.1410	155.0000
22.1502	158.0000
22.1594	159.0000
22.1686	150.0000
22.1779	163.0000
22.1871	169.0000
22.1963	124.0000
22.2055	172.0000
22.2147	152.0000
22.2240	140.0000
22.2332	133.0000
22.2424	152.0000
22.2516	148.0000
22.2609	153.0000
22.2701	136.0000
22.2793	149.0000
22.2885	172.0000
22.2978	154.0000
22.3070	146.0000
22.3162	144.0000
22.3254	137.0000
22.3346	143.0000
22.3439	141.0000
22.3531	162.0000
22.3623	171.0000
22.3715	130.0000
22.3808	141.0000
22.3900	156.0000
22.3992	175.0000
22.4084	159.0000
22.4176	141.0000
22.4269	161.0000
22.4361	152.0000
22.4453	157.0000
22.4545	150.0000
22.4638	151.0000
22.4730	151.0000
22.4822	143.0000
22.4914	143.0000
22.5007	163.0000
22.5099	134.0000
22.5191	146.0000
22.5283	147.0000
22.5375	156.0000
22.5468	133.0000
22.5560	131.0000
22.5652	126.0000
22.5744	150.0000
22.5837	150.0000
22.5929	152.0000
22.6021	144.0000
22.6113	157.0000
22.6205	151.0000
22.6298	159.0000
22.6390	155.0000
22.6482	149.0000
22.6574	149.0000
22.6667	155.0000
22.6759	147.0000
22.6851	145.0000
22.6943	132.0000
22.7036	136.0000
22.7128	144.0000
22.7220	135.0000
22.7312	134.0000
22.7404	138.0000
22.7497	161.0000
22.7589	161.0000
22.7681	146.0000
22.7773	143.0000
22.7866	147.0000
22.7958	152.0000
22.8050	150.0000
22.8142	152.0000
22.8234	125.0000
22.8327	152.0000
22.8419	157.0000
22.8511	138.0000
22.8603	165.0000
22.8696	146.0000
22.8788	133.0000
22.8880	157.0000
22.8972	157.0000
22.9064	157.0000
22.9157	146.0000
22.9249	129.0000
22.9341	117.0000
22.9433	148.0000
22.9526	146.0000
22.9618	139.0000
22.9710	146.0000
22.9802	150.0000
22.9895	152.0000
22.9987	120.0000
23.0079	140.0000
23.0171	151.0000
23.0263	154.0000
23.0356	139.0000
23.0448	138.0000
23.0540	127.0000
23.0632	161.0000
23.0725	137.0000
23.0817	149.0000
23.0909	161.0000
23.1001	140.0000
23.1093	150.0000
23.1186	137.0000
23.1278	155.0000
23.1370	128.0000
23.1462	142.0000
23.1555	129.0000
23.1647	161.0000
23.1739	157.0000
23.1831	151.0000
23.1924	136.0000
23.2016	166.0000
23.2108	139.0000
23.2200	130.0000
23.2292	153.0000
23.2385	138.0000
23.2477	134.0000
23.2569	121.0000
23.2661	152.0000
23.2754	160.0000
23.2846	146.0000
23.2938	136.0000
23.3030	137.0000
23.3122	137.0000
23.3215	162.0000
23.3307	148.0000
23.3399	146.0000
23.3491	118.0000
23.3584	145.0000
23.3676	152.0000
23.3768	164.0000
23.3860	144.0000
23.3952	135.0000
23.4045	138.0000
23.4137	142.0000
23.4229	146.0000
23.4321	135.0000
23.4414	134.0000
23.4506	147.0000
23.4598	142.0000
23.4690	131.0000
23.4783	132.0000
23.4875	145.0000
23.4967	154.0000
23.5059	147.0000
23.5151	150.0000
23.5244	137.0000
23.5336	135.0000
23.5428	159.0000
23.5520	131.0000
23.5613	156.0000
23.5705	132.0000
23.5797	129.0000
23.5889	132.0000
23.5981	141.0000
23.6074	126.0000
23.6166	158.0000
23.6258	125.0000
23.6350	140.0000
23.6443	142.0000
23.6535	137.0000
23.6627	136.0000
23.6719	151.0000
23.6812	140.0000
23.6904	136.0000
23.6996	144.0000
23.7088	128.0000
23.7180	141.0000
23.7273	141.0000
23.7365	139.0000
23.7457	124.0000
23.7549	138.0000
23.7642	161.0000
23.7734	129.0000
23.7826	143.0000
23.7918	134.0000
23.8010	144.0000
23.8103	120.0000
23.8195	141.0000
23.8287	123.0000
23.8379	137.0000
23.8472	147.0000
23.8564	168.0000
23.8656	138.0000
23.8748	144.0000
23.8841	140.0000
23.8933	149.0000
23.9025	167.0000
23.9117	158.0000
23.9209	140.0000
23.9302	132.0000
23.9394	137.0000
23.9486	150.0000
23.9578	139.0000
23.9671	123.0000
23.9763	154.0000
23.9855	146.0000
23.9947	123.0000
24.0039	151.0000
24.0132	146.0000
24.0224	140.0000
24.0316	153.0000
24.0408	159.0000
24.0501	146.0000
24.0593	147.0000
24.0685	136.0000
24.0777	154.0000
24.0869	142.0000
24.0962	159.0000
24.1054	151.0000
24.1146	149.0000
24.1238	141.0000
24.1331	155.0000
24.1423	144.0000
24.1515	144.0000
24.1607	150.0000
24.1700	149.0000
24.1792	128.0000
24.1884	143.0000
24.1976	151.0000
24.2068	140.0000
24.2161	135.0000
24.2253	146.0000
24.2345	137.0000
24.2437	153.0000
24.2530	147.0000
24.2622	136.0000
24.2714	177.0000
24.2806	129.0000
24.2898	136.0000
24.2991	138.0000
24.3083	161.0000
24.3175	141.0000
24.3267	126.0000
24.3360	136.0000
24.3452	156.0000
24.3544	130.0000
24.3636	144.0000
24.3729	111.0000
24.3821	137.0000
24.3913	142.0000
24.4005	168.0000
24.4097	137.0000
24.4190	155.0000
24.4282	139.0000
24.4374	143.0000
24.4466	133.0000
24.4559	160.0000
24.4651	169.0000
24.4743	132.0000
24.4835	118.0000
24.4927	148.0000
24.5020	144.0000
24.5112	163.0000
24.5204	139.0000
24.5296	135.0000
24.5389	121.0000
24.5481	132.0000
24.5573	151.0000
24.5665	150.0000
24.5757	157.0000
24.5850	144.0000
24.5942	153.0000
24.6034	165.0000
24.6126	138.0000
24.6219	137.0000
24.6311	146.0000
24.6403	148.0000
24.6495	140.0000
24.6588	138.0000
24.6680	135.0000
24.6772	140.0000
24.6864	153.0000
24.6956	145.0000
24.7049	157.0000
24.7141	136.0000
24.7233	143.0000
24.7325	129.0000
24.7418	142.0000
24.7510	159.0000
24.7602	149.0000
24.7694	131.0000
24.7786	145.0000
24.7879	149.0000
24.7971	154.0000
24.8063	137.0000
24.8155	161.0000
24.8248	144.0000
24.8340	141.0000
24.8432	163.0000
24.8524	159.0000
24.8617	137.0000
24.8709	146.0000
24.8801	165.0000
24.8893	157.0000
24.8985	146.0000
24.9078	137.0000
24.9170	159.0000
24.9262	168.0000
24.9354	151.0000
24.9447	145.0000
24.9539	141.0000
24.9631	148.0000
24.9723	152.0000
24.9815	148.0000
24.9908	143.0000
25.0000	129.0000
25.0092	140.0000
25.0184	161.0000
25.0277	138.0000
25.0369	170.0000
25.0461	143.0000
25.0553	135.0000
25.0646	125.0000
25.0738	138.0000
25.0830	152.0000
25.0922	155.0000
25.1014	140.0000
25.1107	135.0000
25.1199	151.0000
25.1291	138.0000
25.1383	139.0000
25.1476	147.0000
25.1568	134.0000
25.1660	153.0000
25.1752	137.0000
25.1844	144.0000
25.1937	159.0000
25.2029	134.0000
25.2121	147.0000
25.2213	138.0000
25.2306	141.0000
25.2398	152.0000
25.2490	148.0000
25.2582	153.0000
25.2674	131.0000
25.2767	151.0000
25.2859	162.0000
25.2951	165.0000
25.3043	141.0000
25.3136	133.0000
25.3228	133.0000
25.3320	150.0000
25.3412	140.0000
25.3505	131.0000
25.3597	138.0000
25.3689	148.0000
25.3781	141.0000
25.3873	147.0000
25.3966	112.0000
25.4058	143.0000
25.4150	144.0000
25.4242	129.0000
25.4335	161.0000
25.4427	135.0000
25.4519	145.0000
25.4611	140.0000
25.4703	131.0000
25.4796	169.0000
25.4888	155.0000
25.4980	153.0000
25.5072	169.0000
25.5165	143.0000
25.5257	140.0000
25.5349	155.0000
25.5441	168.0000
25.5534	166.0000
25.5626	158.0000
25.5718	144.0000
25.5810	161.0000
25.5902	168.0000
25.5995	133.0000
25.6087	140.0000
25.6179	143.0000
25.6271	158.0000
25.6364	190.0000
25.6456	165.0000
25.6548	187.0000
25.6640	130.0000
25.6732	148.0000
25.6825	139.0000
25.6917	144.0000
25.7009	161.0000
25.7101	170.0000
25.7194	132.0000
25.7286	131.0000
25.7378	160.0000
25.7470	157.0000
25.7562	160.0000
25.7655	139.0000
25.7747	152.0000
25.7839	135.0000
25.7931	164.0000
25.8024	176.0000
25.8116	131.0000
25.8208	132.0000
25.8300	130.0000
25.8393	160.0000
25.8485	143.0000
25.8577	167.0000
25.8669	164.0000
25.8761	144.0000
25.8854	138.0000
25.8946	143.0000
25.9038	139.0000
25.9130	155.0000
25.9223	157.0000
25.9315	145.0000
25.9407	146.0000
25.9499	167.0000
25.9591	160.0000
25.9684	147.0000
25.9776	173.0000
25.9868	148.0000
25.9960	153.0000
26.0053	148.0000
26.0145	165.0000
26.0237	167.0000
26.0329	143.0000
26.0422	160.0000
26.0514	152.0000
26.0606	148.0000
26.0698	149.0000
26.0790	148.0000
26.0883	167.0000
26.0975	171.0000
26.1067	153.0000
26.1159	161.0000
26.1252	165.0000
26.1344	165.0000
26.1436	159.0000
26.1528	149.0000
26.1620	148.0000
26.1713	141.0000
26.1805	140.0000
26.1897	147.0000
26.1989	146.0000
26.2082	156.0000
26.2174	153.0000
26.2266	171.0000
26.2358	144.0000
26.2451	157.0000
26.2543	160.0000
26.2635	180.0000
26.2727	159.0000
26.2819	127.0000
26.2912	159.0000
26.3004	154.0000
26.3096	156.0000
26.3188	171.0000
26.3281	149.0000
26.3373	155.0000
26.3465	153.0000
26.3557	157.0000
26.3649	139.0000
26.3742	150.0000
26.3834	167.0000
26.3926	159.0000
26.4018	163.0000
26.4111	154.0000
26.4203	143.0000
26.4295	145.0000
26.4387	153.0000
26.4479	157.0000
26.4572	140.0000
26.4664	147.0000
26.4756	155.0000
26.4848	150.0000
26.4941	156.0000
26.5033	153.0000
26.5125	136.0000
26.5217	157.0000
26.5310	168.0000
26.5402	168.0000
26.5494	143.0000
26.5586	161.0000
26.5678	148.0000
26.5771	143.0000
26.5863	171.0000
26.5955	158.0000
26.6047	146.0000
26.6140	133.0000
26.6232	146.0000
26.6324	175.0000
26.6416	166.0000
26.6508	153.0000
26.6601	146.0000
26.6693	147.0000
26.6785	162.0000
26.6877	129.0000
26.6970	143.0000
26.7062	149.0000
26.7154	146.0000
26.7246	161.0000
26.7339	154.0000
26.7431	164.0000
26.7523	157.0000
26.7615	171.0000
26.7707	138.0000
26.7800	156.0000
26.7892	168.0000
26.7984	149.0000
26.8076	152.0000
26.8169	153.0000
26.8261	154.0000
26.8353	163.0000
26.8445	146.0000
26.8537	149.0000
26.8630	157.0000
26.8722	149.0000
26.8814	155.0000
26.8906	151.0000
26.8999	168.0000
26.9091	144.0000
26.9183	179.0000
26.9275	164.0000
26.9367	162.0000
26.9460	147.0000
26.9552	156.0000
26.9644	159.0000
26.9736	175.0000
26.9829	194.0000
26.9921	161.0000
27.0013	187.0000
27.0105	163.0000
27.0198	163.0000
27.0290	184.0000
27.0382	162.0000
27.0474	161.0000
27.0566	163.0000
27.0659	162.0000
27.0751	148.0000
27.0843	165.0000
27.0935	175.0000
27.1028	155.0000
27.1120	161.0000
27.1212	157.0000
27.1304	153.0000
27.1396	172.0000
27.1489	154.0000
27.1581	160.0000
27.1673	180.0000
27.1765	168.0000
27.1858	153.0000
27.1950	167.0000
27.2042	200.0000
27.2134	180.0000
27.2227	151.0000
27.2319	163.0000
27.2411	157.0000
27.2503	167.0000
27.2595	168.0000
27.2688	158.0000
27.2780	165.0000
27.2872	150.0000
27.2964	171.0000
27.3057	158.0000
27.3149	138.0000
27.3241	161.0000
27.3333	164.0000
27.3425	153.0000
27.3518	141.0000
27.3610	176.0000
27.3702	162.0000
27.3794	152.0000
27.3887	149.0000
27.3979	146.0000
27.4071	177.0000
27.4163	160.0000
27.4256	159.0000
27.4348	159.0000
27.4440	169.0000
27.4532	164.0000
27.4624	174.0000
27.4717	165.0000
27.4809	149.0000
27.4901	144.0000
27.4993	170.0000
27.5086	168.0000
27.5178	167.0000
27.5270	170.0000
27.5362	170.0000
27.5454	171.0000
27.5547	160.0000
27.5639	164.0000
27.5731	166.0000
27.5823	146.0000
27.5916	161.0000
27.6008	172.0000
27.6100	158.0000
27.6192	157.0000
27.6284	144.0000
27.6377	168.0000
27.6469	164.0000
27.6561	158.0000
27.6653	163.0000
27.6746	128.0000
27.6838	170.0000
27.6930	165.0000
27.7022	164.0000
27.7115	164.0000
27.7207	172.0000
27.7299	174.0000
27.7391	178.0000
27.7483	152.0000
27.7576	160.0000
27.7668	169.0000
27.7760	141.0000
27.7852	167.0000
27.7945	163.0000
27.8037	178.0000
27.8129	159.0000
27.8221	189.0000
27.8313	156.0000
27.8406	183.0000
27.8498	173.0000
27.8590	160.0000
27.8682	161.0000
27.8775	171.0000
27.8867	162.0000
27.8959	154.0000
27.9051	178.0000
27.9144	131.0000
27.9236	155.0000
27.9328	169.0000
27.9420	168.0000
27.9512	173.0000
27.9605	150.0000
27.9697	145.0000
27.9789	152.0000
27.9881	166.0000
27.9974	153.0000
28.0066	163.0000
28.0158	147.0000
28.0250	167.0000
28.0342	143.0000
28.0435	175.0000
28.0527	146.0000
28.0619	165.0000
28.0711	176.0000
28.0804	159.0000
28.0896	170.0000
28.0988	157.0000
28.1080	151.0000
28.1172	202.0000
28.1265	172.0000
28.1357	148.0000
28.1449	192.0000
28.1541	147.0000
28.1634	167.0000
28.1726	176.0000
28.1818	172.0000
28.1910	181.0000
28.2003	181.0000
28.2095	170.0000
28.2187	155.0000
28.2279	172.0000
28.2371	148.0000
28.2464	160.0000
28.2556	156.0000
28.2648	159.0000
28.2740	150.0000
28.2833	192.0000
28.2925	169.0000
28.3017	153.0000
28.3109	172.0000
28.3201	174.0000
28.3294	144.0000
28.3386	176.0000
28.3478	174.0000
28.3570	191.0000
28.3663	155.0000
28.3755	160.0000
28.3847	146.0000
28.3939	186.0000
28.4032	167.0000
28.4124	161.0000
28.4216	153.0000
28.4308	146.0000
28.4400	156.0000
28.4493	163.0000
28.4585	180.0000
28.4677	160.0000
28.4769	175.0000
28.4862	173.0000
28.4954	164.0000
28.5046	148.0000
28.5138	163.0000
28.5230	180.0000
28.5323	171.0000
28.5415	175.0000
28.5507	192.0000
28.5599	152.0000
28.5692	170.0000
28.5784	169.0000
28.5876	174.0000
28.5968	200.0000
28.6061	188.0000
28.6153	170.0000
28.6245	172.0000
28.6337	167.0000
28.6429	153.0000
28.6522	154.0000
28.6614	166.0000
28.6706	145.0000
28.6798	133.0000
28.6891	176.0000
28.6983	166.0000
28.7075	184.0000
28.7167	162.0000
28.7259	143.0000
28.7352	175.0000
28.7444	190.0000
28.7536	166.0000
28.7628	173.0000
28.7721	164.0000
28.7813	185.0000
28.7905	157.0000
28.7997	176.0000
28.8089	172.0000
28.8182	156.0000
28.8274	177.0000
28.8366	162.0000
28.8458	150.0000
28.8551	165.0000
28.8643	173.0000
28.8735	172.0000
28.8827	166.0000
28.8920	157.0000
28.9012	176.0000
28.9104	163.0000
28.9196	156.0000
28.9288	190.0000
28.9381	174.0000
28.9473	173.0000
28.9565	186.0000
28.9657	176.0000
28.9750	162.0000
28.9842	172.0000
28.9934	173.0000
29.0026	168.0000
29.0118	184.0000
29.0211	164.0000
29.0303	156.0000
29.0395	159.0000
29.0487	179.0000
29.0580	150.0000
29.0672	156.0000
29.0764	145.0000
29.0856	165.0000
29.0949	181.0000
29.1041	158.0000
29.1133	150.0000
29.1225	170.0000
29.1317	187.0000
29.1410	181.0000
29.1502	170.0000
29.1594	181.0000
29.1686	188.0000
29.1779	165.0000
29.1871	157.0000
29.1963	176.0000
29.2055	174.0000
29.2147	173.0000
29.2240	142.0000
29.2332	171.0000
29.2424	190.0000
29.2516	177.0000
29.2609	166.0000
29.2701	149.0000
29.2793	161.0000
29.2885	182.0000
29.2977	157.0000
29.3070	154.0000
29.3162	182.0000
29.3254	172.0000
29.3346	157.0000
29.3439	197.0000
29.3531	168.0000
29.3623	157.0000
29.3715	156.0000
29.3808	159.0000
29.3900	158.0000
29.3992	167.0000
29.4084	167.0000
29.4176	157.0000
29.4269	147.0000
29.4361	176.0000
29.4453	161.0000
29.4545	176.0000
29.4638	158.0000
29.4730	162.0000
29.4822	161.0000
29.4914	160.0000
29.5006	160.0000
29.5099	192.0000
29.5191	152.0000
29.5283	173.0000
29.5375	177.0000
29.5468	175.0000
29.5560	151.0000
29.5652	166.0000
29.5744	163.0000
29.5837	189.0000
29.5929	178.0000
29.6021	154.0000
29.6113	149.0000
29.6205	172.0000
29.6298	177.0000
29.6390	168.0000
29.6482	164.0000
29.6574	163.0000
29.6667	169.0000
29.6759	172.0000
29.6851	158.0000
29.6943	163.0000
29.7035	167.0000
29.7128	154.0000
29.7220	170.0000
29.7312	173.0000
29.7404	164.0000
29.7497	190.0000
29.7589	177.0000
29.7681	159.0000
29.7773	176.0000
29.7866	171.0000
29.7958	159.0000
29.8050	167.0000
29.8142	176.0000
29.8234	162.0000
29.8327	154.0000
29.8419	179.0000
29.8511	179.0000
29.8603	191.0000
29.8696	173.0000
29.8788	173.0000
29.8880	168.0000
29.8972	170.0000
29.9064	162.0000
29.9157	162.0000
29.9249	181.0000
29.9341	176.0000
29.9433	168.0000
29.9526	163.0000
29.9618	158.0000
29.9710	170.0000
29.9802	168.0000
29.9894	153.0000
29.9987	174.0000
30.0079	187.0000
30.0171	158.0000
30.0263	174.0000
30.0356	153.0000
30.0448	160.0000
30.0540	168.0000
30.0632	179.0000
30.0725	156.0000
30.0817	168.0000
30.0909	167.0000
30.1001	159.0000
30.1093	170.0000
30.1186	158.0000
30.1278	172.0000
30.1370	159.0000
30.1462	162.0000
30.1555	178.0000
30.1647	161.0000
30.1739	166.0000
30.1831	168.0000
30.1923	199.0000
30.2016	167.0000
30.2108	152.0000
30.2200	173.0000
30.2292	185.0000
30.2385	173.0000
30.2477	155.0000
30.2569	168.0000
30.2661	155.0000
30.2754	154.0000
30.2846	193.0000
30.2938	164.0000
30.3030	158.0000
30.3122	176.0000
30.3215	190.0000
30.3307	156.0000
30.3399	163.0000
30.3491	162.0000
30.3584	175.0000
30.3676	149.0000
30.3768	164.0000
30.3860	172.0000
30.3952	169.0000
30.4045	163.0000
30.4137	153.0000
30.4229	178.0000
30.4321	178.0000
30.4414	159.0000
30.4506	146.0000
30.4598	180.0000
30.4690	175.0000
30.4782	182.0000
30.4875	161.0000
30.4967	179.0000
30.5059	145.0000
30.5151	139.0000
30.5244	196.0000
30.5336	163.0000
30.5428	179.0000
30.5520	159.0000
30.5613	162.0000
30.5705	185.0000
30.5797	178.0000
30.5889	150.0000
30.5981	165.0000
30.6074	172.0000
30.6166	161.0000
30.6258	150.0000
30.6350	161.0000
30.6443	170.0000
30.6535	139.0000
30.6627	174.0000
30.6719	161.0000
30.6811	171.0000
30.6904	160.0000
30.6996	167.0000
30.7088	201.0000
30.7180	162.0000
30.7273	151.0000
30.7365	188.0000
30.7457	160.0000
30.7549	191.0000
30.7642	178.0000
30.7734	170.0000
30.7826	188.0000
30.7918	150.0000
30.8010	184.0000
30.8103	147.0000
30.8195	157.0000
30.8287	151.0000
30.8379	152.0000
30.8472	173.0000
30.8564	200.0000
30.8656	149.0000
30.8748	157.0000
30.8840	172.0000
30.8933	173.0000
30.9025	164.0000
30.9117	186.0000
30.9209	167.0000
30.9302	161.0000
30.9394	167.0000
30.9486	150.0000
30.9578	177.0000
30.9671	163.0000
30.9763	178.0000
30.9855	161.0000
30.9947	141.0000
31.0039	180.0000
31.0132	160.0000
31.0224	167.0000
31.0316	151.0000
31.0408	172.0000
31.0501	153.0000
31.0593	151.0000
31.0685	176.0000
31.0777	164.0000
31.0869	166.0000
31.0962	163.0000
31.1054	178.0000
31.1146	179.0000
31.1238	169.0000
31.1331	165.0000
31.1423	170.0000
31.1515	181.0000
31.1607	188.0000
31.1699	162.0000
31.1792	146.0000
31.1884	166.0000
31.1976	178.0000
31.2068	153.0000
31.2161	178.0000
31.2253	150.0000
31.2345	157.0000
31.2437	169.0000
31.2530	176.0000
31.2622	161.0000
31.2714	166.0000
31.2806	173.0000
31.2898	149.0000
31.2991	188.0000
31.3083	195.0000
31.3175	174.0000
31.3267	179.0000
31.3360	158.0000
31.3452	148.0000
31.3544	179.0000
31.3636	166.0000
31.3728	156.0000
31.3821	161.0000
31.3913	185.0000
31.4005	177.0000
31.4097	168.0000
31.4190	162.0000
31.4282	164.0000
31.4374	158.0000
31.4466	179.0000
31.4559	182.0000
31.4651	155.0000
31.4743	164.0000
31.4835	180.0000
31.4927	174.0000
31.5020	180.0000
31.5112	166.0000
31.5204	170.0000
31.5296	168.0000
31.5389	204.0000
31.5481	191.0000
31.5573	158.0000
31.5665	184.0000
31.5757	156.0000
31.5850	139.0000
31.5942	154.0000
31.6034	157.0000
31.6126	162.0000
31.6219	158.0000
31.6311	176.0000
31.6403	156.0000
31.6495	172.0000
31.6587	141.0000
31.6680	148.0000
31.6772	174.0000
31.6864	182.0000
31.6956	169.0000
31.7049	175.0000
31.7141	165.0000
31.7233	162.0000
31.7325	144.0000
31.7418	155.0000
31.7510	175.0000
31.7602	168.0000
31.7694	171.0000
31.7786	156.0000
31.7879	160.0000
31.7971	155.0000
31.8063	140.0000
31.8155	163.0000
31.8248	161.0000
31.8340	165.0000
31.8432	186.0000
31.8524	172.0000
31.8616	158.0000
31.8709	191.0000
31.8801	159.0000
31.8893	162.0000
31.8985	172.0000
31.9078	163.0000
31.9170	156.0000
31.9262	158.0000
31.9354	175.0000
31.9447	161.0000
31.9539	160.0000
31.9631	155.0000
31.9723	188.0000
31.9815	175.0000
31.9908	164.0000
32.0000	168.0000
32.0092	188.0000
32.0184	165.0000
32.0277	156.0000
32.0369	163.0000
32.0461	142.0000
32.0553	162.0000
32.0645	180.0000
32.0738	148.0000
32.0830	173.0000
32.0922	183.0000
32.1014	153.0000
32.1107	158.0000
32.1199	168.0000
32.1291	163.0000
32.1383	171.0000
32.1476	163.0000
32.1568	143.0000
32.1660	171.0000
32.1752	148.0000
32.1844	179.0000
32.1937	162.0000
32.2029	170.0000
32.2121	169.0000
32.2213	140.0000
32.2306	158.0000
32.2398	173.0000
32.2490	149.0000
32.2582	166.0000
32.2674	164.0000
32.2767	181.0000
32.2859	134.0000
32.2951	137.0000
32.3043	165.0000
32.3136	157.0000
32.3228	155.0000
32.3320	164.0000
32.3412	162.0000
32.3504	177.0000
32.3597	174.0000
32.3689	175.0000
32.3781	166.0000
32.3873	147.0000
32.3966	179.0000
32.4058	180.0000
32.4150	167.0000
32.4242	175.0000
32.4335	162.0000
32.4427	156.0000
32.4519	154.0000
32.4611	183.0000
32.4703	178.0000
32.4796	149.0000
32.4888	151.0000
32.4980	164.0000
32.5072	155.0000
32.5165	164.0000
32.5257	153.0000
32.5349	145.0000
32.5441	166.0000
32.5533	179.0000
32.5626	153.0000
32.5718	184.0000
32.5810	147.0000
32.5902	149.0000
32.5995	146.0000
32.6087	180.0000
32.6179	179.0000
32.6271	162.0000
32.6364	167.0000
32.6456	189.0000
32.6548	157.0000
32.6640	185.0000
32.6732	143.0000
32.6825	150.0000
32.6917	176.0000
32.7009	150.0000
32.7101	167.0000
32.7194	160.0000
32.7286	186.0000
32.7378	144.0000
32.7470	198.0000
32.7562	167.0000
32.7655	172.0000
32.7747	180.0000
32.7839	149.0000
32.7931	161.0000
32.8024	182.0000
32.8116	191.0000
32.8208	157.0000
32.8300	173.0000
32.8392	164.0000
32.8485	158.0000
32.8577	157.0000
32.8669	178.0000
32.8761	191.0000
32.8854	136.0000
32.8946	167.0000
32.9038	184.0000
32.9130	162.0000
32.9223	153.0000
32.9315	177.0000
32.9407	161.0000
32.9499	169.0000
32.9591	171.0000
32.9684	159.0000
32.9776	146.0000
32.9868	172.0000
32.9960	187.0000
33.0053	155.0000
33.0145	157.0000
33.0237	180.0000
33.0329	188.0000
33.0421	160.0000
33.0514	166.0000
33.0606	159.0000
33.0698	175.0000
33.0790	162.0000
33.0883	152.0000
33.0975	157.0000
33.1067	145.0000
33.1159	183.0000
33.1252	190.0000
33.1344	193.0000
33.1436	180.0000
33.1528	155.0000
33.1620	162.0000
33.1713	147.0000
33.1805	148.0000
33.1897	181.0000
33.1989	166.0000
33.2082	146.0000
33.2174	178.0000
33.2266	154.0000
33.2358	168.0000
33.2450	196.0000
33.2543	172.0000
33.2635	150.0000
33.2727	163.0000
33.2819	170.0000
33.2912	177.0000
33.3004	161.0000
33.3096	161.0000
33.3188	177.0000
33.3281	162.0000
33.3373	149.0000
33.3465	164.0000
33.3557	148.0000
33.3649	153.0000
33.3742	186.0000
33.3834	166.0000
33.3926	157.0000
33.4018	175.0000
33.4111	159.0000
33.4203	181.0000
33.4295	170.0000
33.4387	157.0000
33.4479	168.0000
33.4572	167.0000
33.4664	186.0000
33.4756	167.0000
33.4848	183.0000
33.4941	178.0000
33.5033	150.0000
33.5125	184.0000
33.5217	158.0000
33.5309	146.0000
33.5402	163.0000
33.5494	182.0000
33.5586	170.0000
33.5678	170.0000
33.5771	157.0000
33.5863	151.0000
33.5955	164.0000
33.6047	181.0000
33.6140	159.0000
33.6232	172.0000
33.6324	153.0000
33.6416	186.0000
33.6508	163.0000
33.6601	177.0000
33.6693	158.0000
33.6785	187.0000
33.6877	182.0000
33.6970	152.0000
33.7062	148.0000
33.7154	156.0000
33.7246	189.0000
33.7338	168.0000
33.7431	183.0000
33.7523	173.0000
33.7615	178.0000
33.7707	179.0000
33.7800	161.0000
33.7892	155.0000
33.7984	165.0000
33.8076	181.0000
33.8169	178.0000
33.8261	162.0000
33.8353	171.0000
33.8445	154.0000
33.8537	185.0000
33.8630	137.0000
33.8722	165.0000
33.8814	156.0000
33.8906	168.0000
33.8999	157.0000
33.9091	176.0000
33.9183	150.0000
33.9275	162.0000
33.9367	176.0000
33.9460	171.0000
33.9552	148.0000
33.9644	180.0000
33.9736	150.0000
33.9829	164.0000
33.9921	153.0000
34.0013	152.0000
34.0105	170.0000
34.0197	169.0000
34.0290	150.0000
34.0382	161.0000
34.0474	171.0000
34.0566	151.0000
34.0659	149.0000
34.0751	166.0000
34.0843	159.0000
34.0935	165.0000
34.1028	169.0000
34.1120	158.0000
34.1212	165.0000
34.1304	166.0000
34.1396	162.0000
34.1489	153.0000
34.1581	163.0000
34.1673	170.0000
34.1765	145.0000
34.1858	158.0000
34.1950	154.0000
34.2042	156.0000
34.2134	149.0000
34.2226	150.0000
34.2319	164.0000
34.2411	161.0000
34.2503	191.0000
34.2595	179.0000
34.2688	155.0000
34.2780	166.0000
34.2872	145.0000
34.2964	144.0000
34.3057	157.0000
34.3149	166.0000
34.3241	147.0000
34.3333	170.0000
34.3425	165.0000
34.3518	140.0000
34.3610	146.0000
34.3702	152.0000
34.3794	136.0000
34.3887	145.0000
34.3979	175.0000
34.4071	182.0000
34.4163	133.0000
34.4255	150.0000
34.4348	157.0000
34.4440	173.0000
34.4532	153.0000
34.4624	151.0000
34.4717	140.0000
34.4809	141.0000
34.4901	174.0000
34.4993	153.0000
34.5086	144.0000
34.5178	164.0000
34.5270	134.0000
34.5362	154.0000
34.5454	160.0000
34.5547	153.0000
34.5639	164.0000
34.5731	150.0000
34.5823	147.0000
34.5916	123.0000
34.6008	143.0000
34.6100	134.0000
34.6192	165.0000
34.6284	146.0000
34.6377	144.0000
34.6469	144.0000
34.6561	146.0000
34.6653	167.0000
34.6746	143.0000
34.6838	167.0000
34.6930	144.0000
34.7022	143.0000
34.7114	166.0000
34.7207	156.0000
34.7299	147.0000
34.7391	146.0000
34.7483	131.0000
34.7576	157.0000
34.7668	161.0000
34.7760	142.0000
34.7852	158.0000
34.7945	157.0000
34.8037	124.0000
34.8129	150.0000
34.8221	146.0000
34.8313	168.0000
34.8406	154.0000
34.8498	164.0000
34.8590	150.0000
34.8682	148.0000
34.8775	169.0000
34.8867	142.0000
34.8959	146.0000
34.9051	140.0000
34.9143	159.0000
34.9236	145.0000
34.9328	129.0000
34.9420	131.0000
34.9512	165.0000
34.9605	140.0000
34.9697	133.0000
34.9789	155.0000
34.9881	159.0000
34.9974	166.0000
35.0066	132.0000
35.0158	155.0000
35.0250	128.0000
35.0342	138.0000
35.0435	167.0000
35.0527	135.0000
35.0619	145.0000
35.0711	135.0000
35.0804	122.0000
35.0896	132.0000
35.0988	141.0000
35.1080	136.0000
35.1172	138.0000
35.1265	141.0000
35.1357	132.0000
35.1449	131.0000
35.1541	150.0000
35.1634	144.0000
35.1726	148.0000
35.1818	116.0000
35.1910	127.0000
35.2002	138.0000
35.2095	138.0000
35.2187	144.0000
35.2279	129.0000
35.2371	137.0000
35.2464	134.0000
35.2556	148.0000
35.2648	155.0000
35.2740	144.0000
35.2833	133.0000
35.2925	143.0000
35.3017	134.0000
35.3109	147.0000
35.3201	124.0000
35.3294	138.0000
35.3386	145.0000
35.3478	139.0000
35.3570	133.0000
35.3663	137.0000
35.3755	128.0000
35.3847	146.0000
35.3939	125.0000
35.4031	117.0000
35.4124	128.0000
35.4216	154.0000
35.4308	124.0000
35.4400	141.0000
35.4493	128.0000
35.4585	118.0000
35.4677	127.0000
35.4769	143.0000
35.4862	129.0000
35.4954	117.0000
35.5046	154.0000
35.5138	134.0000
35.5230	135.0000
35.5323	134.0000
35.5415	115.0000
35.5507	109.0000
35.5599	164.0000
35.5692	120.0000
35.5784	125.0000
35.5876	133.0000
35.5968	127.0000
35.6060	148.0000
35.6153	102.0000
35.6245	133.0000
35.6337	136.0000
35.6429	151.0000
35.6522	121.0000
35.6614	146.0000
35.6706	133.0000
35.6798	140.0000
35.6891	119.0000
35.6983	126.0000
35.7075	129.0000
35.7167	130.0000
35.7259	140.0000
35.7352	120.0000
35.7444	125.0000
35.7536	109.0000
35.7628	138.0000
35.7721	147.0000
35.7813	134.0000
35.7905	123.0000
35.7997	131.0000
35.8089	101.0000
35.8182	130.0000
35.8274	113.0000
35.8366	129.0000
35.8458	109.0000
35.8551	104.0000
35.8643	136.0000
35.8735	124.0000
35.8827	152.0000
35.8919	135.0000
35.9012	125.0000
35.9104	152.0000
35.9196	116.0000
35.9288	130.0000
35.9381	121.0000
35.9473	116.0000
35.9565	123.0000
35.9657	121.0000
35.9750	126.0000
35.9842	148.0000
35.9934	126.0000
36.0026	123.0000
36.0118	137.0000
36.0211	105.0000
36.0303	148.0000
36.0395	101.0000
36.0487	112.0000
36.0580	111.0000
36.0672	102.0000
36.0764	125.0000
36.0856	122.0000
36.0948	125.0000
36.1041	133.0000
36.1133	135.0000
36.1225	130.0000
36.1317	114.0000
36.1410	122.0000
36.1502	115.0000
36.1594	126.0000
36.1686	105.0000
36.1779	107.0000
36.1871	124.0000
36.1963	118.0000
36.2055	124.0000
36.2147	107.0000
36.2240	138.0000
36.2332	113.0000
36.2424	113.0000
36.2516	120.0000
36.2609	102.0000
36.2701	122.0000
36.2793	115.0000
36.2885	110.0000
36.2977	114.0000
36.3070	108.0000
36.3162	132.0000
36.3254	128.0000
36.3346	99.0000
36.3439	116.0000
36.3531	111.0000
36.3623	123.0000
36.3715	95.0000
36.3807	109.0000
36.3900	112.0000
36.3992	112.0000
36.4084	94.0000
36.4176	118.0000
36.4269	119.0000
36.4361	112.0000
36.4453	124.0000
36.4545	110.0000
36.4638	99.0000
36.4730	130.0000
36.4822	88.0000
36.4914	119.0000
36.5006	103.0000
36.5099	117.0000
36.5191	103.0000
36.5283	124.0000
36.5375	121.0000
36.5468	128.0000
36.5560	124.0000
36.5652	111.0000
36.5744	80.0000
36.5836	106.0000
36.5929	111.0000
36.6021	121.0000
36.6113	95.0000
36.6205	100.0000
36.6298	121.0000
36.6390	96.0000
36.6482	106.0000
36.6574	118.0000
36.6667	126.0000
36.6759	114.0000
36.6851	103.0000
36.6943	102.0000
36.7035	110.0000
36.7128	95.0000
36.7220	105.0000
36.7312	107.0000
36.7404	99.0000
36.7497	97.0000
36.7589	107.0000
36.7681	108.0000
36.7773	117.0000
36.7865	116.0000
36.7958	119.0000
36.8050	84.0000
36.8142	103.0000
36.8234	108.0000
36.8327	110.0000
36.8419	94.0000
36.8511	132.0000
36.8603	104.0000
36.8696	124.0000
36.8788	93.0000
36.8880	107.0000
36.8972	110.0000
36.9064	108.0000
36.9157	117.0000
36.9249	101.0000
36.9341	104.0000
36.9433	109.0000
36.9526	100.0000
36.9618	108.0000
36.9710	112.0000
36.9802	89.0000
36.9894	116.0000
36.9987	124.0000
37.0079	80.0000
37.0171	102.0000
37.0263	99.0000
37.0356	104.0000
37.0448	87.0000
37.0540	108.0000
37.0632	83.0000
37.0724	118.0000
37.0817	98.0000
37.0909	112.0000
37.1001	91.0000
37.1093	109.0000
37.1186	102.0000
37.1278	120.0000
37.1370	95.0000
37.1462	104.0000
37.1555	95.0000
37.1647	95.0000
37.1739	88.0000
37.1831	101.0000
37.1923	100.0000
37.2016	110.0000
37.2108	103.0000
37.2200	111.0000
37.2292	99.0000
37.2385	104.0000
37.2477	115.0000
37.2569	118.0000
37.2661	116.0000
37.2753	130.0000
37.2846	175.0000
37.2938	229.0000
37.3030	221.0000
37.3122	352.0000
37.3215	419.0000
37.3307	398.0000
37.3399	313.0000
37.3491	202.0000
37.3584	161.0000
37.3676	128.0000
37.3768	121.0000
37.3860	119.0000
37.3952	115.0000
37.4045	116.0000
37.4137	104.0000
37.4229	118.0000
37.4321	121.0000
37.4414	105.0000
37.4506	96.0000
37.4598	122.0000
37.4690	91.0000
37.4782	95.0000
37.4875	122.0000
37.4967	128.0000
37.5059	129.0000
37.5151	141.0000
37.5244	168.0000
37.5336	189.0000
37.5428	238.0000
37.5520	265.0000
37.5612	234.0000
37.5705	177.0000
37.5797	163.0000
37.5889	114.0000
37.5981	134.0000
37.6074	103.0000
37.6166	109.0000
37.6258	113.0000
37.6350	113.0000
37.6443	90.0000
37.6535	84.0000
37.6627	104.0000
37.6719	96.0000
37.6811	96.0000
37.6904	99.0000
37.6996	81.0000
37.7088	107.0000
37.7180	87.0000
37.7273	86.0000
37.7365	90.0000
37.7457	108.0000
37.7549	89.0000
37.7641	99.0000
37.7734	97.0000
37.7826	91.0000
37.7918	85.0000
37.8010	100.0000
37.8103	114.0000
37.8195	107.0000
37.8287	94.0000
37.8379	87.0000
37.8472	97.0000
37.8564	93.0000
37.8656	87.0000
37.8748	95.0000
37.8840	101.0000
37.8933	110.0000
37.9025	84.0000
37.9117	97.0000
37.9209	85.0000
37.9302	98.0000
37.9394	98.0000
37.9486	93.0000
37.9578	96.0000
37.9670	77.0000
37.9763	99.0000
37.9855	111.0000
37.9947	86.0000
38.0039	89.0000
38.0132	85.0000
38.0224	86.0000
38.0316	92.0000
38.0408	94.0000
38.0501	90.0000
38.0593	89.0000
38.0685	82.0000
38.0777	101.0000
38.0869	113.0000
38.0962	96.0000
38.1054	115.0000
38.1146	84.0000
38.1238	100.0000
38.1331	87.0000
38.1423	99.0000
38.1515	96.0000
38.1607	89.0000
38.1699	104.0000
38.1792	101.0000
38.1884	88.0000
38.1976	81.0000
38.2068	93.0000
38.2161	89.0000
38.2253	79.0000
38.2345	94.0000
38.2437	95.0000
38.2529	73.0000
38.2622	73.0000
38.2714	91.0000
38.2806	86.0000
38.2898	72.0000
38.2991	100.0000
38.3083	92.0000
38.3175	108.0000
38.3267	89.0000
38.3360	99.0000
38.3452	94.0000
38.3544	92.0000
38.3636	88.0000
38.3728	86.0000
38.3821	80.0000
38.3913	76.0000
38.4005	82.0000
38.4097	99.0000
38.4190	96.0000
38.4282	79.0000
38.4374	86.0000
38.4466	105.0000
38.4558	92.0000
38.4651	84.0000
38.4743	87.0000
38.4835	95.0000
38.4927	100.0000
38.5020	92.0000
38.5112	102.0000
38.5204	78.0000
38.5296	77.0000
38.5389	86.0000
38.5481	90.0000
38.5573	101.0000
38.5665	83.0000
38.5757	87.0000
38.5850	100.0000
38.5942	91.0000
38.6034	87.0000
38.6126	90.0000
38.6219	89.0000
38.6311	87.0000
38.6403	84.0000
38.6495	78.0000
38.6587	88.0000
38.6680	85.0000
38.6772	77.0000
38.6864	81.0000
38.6956	91.0000
38.7049	93.0000
38.7141	89.0000
38.7233	76.0000
38.7325	76.0000
38.7417	90.0000
38.7510	77.0000
38.7602	88.0000
38.7694	65.0000
38.7786	85.0000
38.7879	89.0000
38.7971	95.0000
38.8063	75.0000
38.8155	95.0000
38.8248	96.0000
38.8340	88.0000
38.8432	83.0000
38.8524	78.0000
38.8616	101.0000
38.8709	86.0000
38.8801	89.0000
38.8893	94.0000
38.8985	84.0000
38.9078	81.0000
38.9170	72.0000
38.9262	80.0000
38.9354	98.0000
38.9446	93.0000
38.9539	82.0000
38.9631	68.0000
38.9723	86.0000
38.9815	97.0000
38.9908	103.0000
39.0000	78.0000
39.0092	103.0000
39.0184	72.0000
39.0277	81.0000
39.0369	85.0000
39.0461	108.0000
39.0553	82.0000
39.0645	80.0000
39.0738	97.0000
39.0830	87.0000
39.0922	96.0000
39.1014	92.0000
39.1107	86.0000
39.1199	96.0000
39.1291	90.0000
39.1383	95.0000
39.1475	78.0000
39.1568	109.0000
39.1660	75.0000
39.1752	82.0000
39.1844	96.0000
39.1937	82.0000
39.2029	89.0000
39.2121	80.0000
39.2213	90.0000
39.2306	71.0000
39.2398	74.0000
39.2490	77.0000
39.2582	93.0000
39.2674	94.0000
39.2767	100.0000
39.2859	98.0000
39.2951	102.0000
39.3043	91.0000
39.3136	77.0000
39.3228	88.0000
39.3320	86.0000
39.3412	86.0000
39.3504	76.0000
39.3597	80.0000
39.3689	97.0000
39.3781	92.0000
39.3873	75.0000
39.3966	90.0000
39.4058	79.0000
39.4150	66.0000
39.4242	86.0000
39.4334	80.0000
39.4427	80.0000
39.4519	85.0000
39.4611	86.0000
39.4703	78.0000
39.4796	98.0000
39.4888	85.0000
39.4980	93.0000
39.5072	87.0000
39.5165	74.0000
39.5257	97.0000
39.5349	87.0000
39.5441	87.0000
39.5533	92.0000
39.5626	86.0000
39.5718	72.0000
39.5810	73.0000
39.5902	80.0000
39.5995	89.0000
39.6087	80.0000
39.6179	78.0000
39.6271	74.0000
39.6363	86.0000
39.6456	87.0000
39.6548	84.0000
39.6640	84.0000
39.6732	85.0000
39.6825	75.0000
39.6917	91.0000
39.7009	61.0000
39.7101	105.0000
39.7194	102.0000
39.7286	75.0000
39.7378	84.0000
39.7470	80.0000
39.7562	98.0000
39.7655	88.0000
39.7747	74.0000
39.7839	82.0000
39.7931	85.0000
39.8024	95.0000
39.8116	107.0000
39.8208	76.0000
39.8300	99.0000
39.8392	88.0000
39.8485	83.0000
39.8577	80.0000
39.8669	75.0000
39.8761	71.0000
39.8854	79.0000
39.8946	78.0000
39.9038	82.0000
39.9130	98.0000
39.9222	94.0000
39.9315	74.0000
39.9407	78.0000
39.9499	96.0000
39.9591	71.0000
39.9684	92.0000
39.9776	94.0000
39.9868	79.0000
39.9960	89.0000
40.0053	83.0000
40.0145	84.0000
40.0237	69.0000
40.0329	75.0000
40.0421	77.0000
40.0514	93.0000
40.0606	83.0000
40.0698	85.0000
40.0790	80.0000
40.0883	86.0000
40.0975	77.0000
40.1067	69.0000
40.1159	62.0000
40.1251	89.0000
40.1344	88.0000
40.1436	79.0000
40.1528	92.0000
40.1620	84.0000
40.1713	88.0000
40.1805	77.0000
40.1897	86.0000
40.1989	84.0000
40.2082	90.0000
40.2174	73.0000
40.2266	89.0000
40.2358	87.0000
40.2450	93.0000
40.2543	98.0000
40.2635	84.0000
40.2727	93.0000
40.2819	105.0000
40.2912	88.0000
40.3004	102.0000
40.3096	65.0000
40.3188	86.0000
40.3280	83.0000
40.3373	78.0000
40.3465	82.0000
40.3557	95.0000
40.3649	80.0000
40.3742	78.0000
40.3834	78.0000
40.3926	91.0000
40.4018	101.0000
40.4111	75.0000
40.4203	95.0000
40.4295	102.0000
40.4387	78.0000
40.4479	94.0000
40.4572	98.0000
40.4664	80.0000
40.4756	81.0000
40.4848	80.0000
40.4941	73.0000
40.5033	97.0000
40.5125	74.0000
40.5217	94.0000
40.5309	88.0000
40.5402	85.0000
40.5494	104.0000
40.5586	71.0000
40.5678	84.0000
40.5771	87.0000
40.5863	71.0000
40.5955	71.0000
40.6047	83.0000
40.6139	99.0000
40.6232	80.0000
40.6324	85.0000
40.6416	73.0000
40.6508	98.0000
40.6601	82.0000
40.6693	81.0000
40.6785	90.0000
40.6877	82.0000
40.6970	83.0000
40.7062	93.0000
40.7154	89.0000
40.7246	107.0000
40.7338	82.0000
40.7431	83.0000
40.7523	90.0000
40.7615	76.0000
40.7707	81.0000
40.7800	81.0000
40.7892	80.0000
40.7984	83.0000
40.8076	78.0000
40.8168	82.0000
40.8261	82.0000
40.8353	91.0000
40.8445	78.0000
40.8537	73.0000
40.8630	71.0000
40.8722	84.0000
40.8814	94.0000
40.8906	82.0000
40.8999	85.0000
40.9091	95.0000
40.9183	83.0000
40.9275	82.0000
40.9367	83.0000
40.9460	86.0000
40.9552	89.0000
40.9644	83.0000
40.9736	93.0000
40.9829	81.0000
40.9921	71.0000
41.0013	74.0000
41.0105	76.0000
41.0197	91.0000
41.0290	78.0000
41.0382	91.0000
41.0474	79.0000
41.0566	90.0000
41.0659	74.0000
41.0751	81.0000
41.0843	78.0000
41.0935	94.0000
41.1027	69.0000
41.1120	79.0000
41.1212	90.0000
41.1304	102.0000
41.1396	87.0000
41.1489	80.0000
41.1581	90.0000
41.1673	88.0000
41.1765	89.0000
41.1858	93.0000
41.1950	84.0000
41.2042	75.0000
41.2134	71.0000
41.2226	90.0000
41.2319	63.0000
41.2411	95.0000
41.2503	73.0000
41.2595	80.0000
41.2688	86.0000
41.2780	93.0000
41.2872	95.0000
41.2964	69.0000
41.3056	89.0000
41.3149	84.0000
41.3241	89.0000
41.3333	85.0000
41.3425	75.0000
41.3518	88.0000
41.3610	89.0000
41.3702	79.0000
41.3794	74.0000
41.3887	88.0000
41.3979	76.0000
41.4071	75.0000
41.4163	89.0000
41.4255	86.0000
41.4348	87.0000
41.4440	80.0000
41.4532	88.0000
41.4624	91.0000
41.4717	93.0000
41.4809	94.0000
41.4901	96.0000
41.4993	86.0000
41.5085	92.0000
41.5178	85.0000
41.5270	80.0000
41.5362	82.0000
41.5454	88.0000
41.5547	91.0000
41.5639	82.0000
41.5731	82.0000
41.5823	87.0000
41.5915	80.0000
41.6008	72.0000
41.6100	98.0000
41.6192	81.0000
41.6284	69.0000
41.6377	80.0000
41.6469	104.0000
41.6561	85.0000
41.6653	82.0000
41.6746	78.0000
41.6838	81.0000
41.6930	86.0000
41.7022	86.0000
41.7114	72.0000
41.7207	87.0000
41.7299	70.0000
41.7391	95.0000
41.7483	91.0000
41.7576	73.0000
41.7668	71.0000
41.7760	88.0000
41.7852	82.0000
41.7944	87.0000
41.8037	78.0000
41.8129	90.0000
41.8221	92.0000
41.8313	83.0000
41.8406	72.0000
41.8498	76.0000
41.8590	85.0000
41.8682	80.0000
41.8775	85.0000
41.8867	80.0000
41.8959	87.0000
41.9051	76.0000
41.9143	82.0000
41.9236	86.0000
41.9328	78.0000
41.9420	88.0000
41.9512	81.0000
41.9605	83.0000
41.9697	81.0000
41.9789	87.0000
41.9881	92.0000
41.9973	91.0000
42.0066	86.0000
42.0158	81.0000
42.0250	79.0000
42.0342	77.0000
42.0435	79.0000
42.0527	93.0000
42.0619	80.0000
42.0711	105.0000
42.0804	86.0000
42.0896	76.0000
42.0988	80.0000
42.1080	79.0000
42.1172	101.0000
42.1265	76.0000
42.1357	70.0000
42.1449	83.0000
42.1541	94.0000
42.1634	86.0000
42.1726	90.0000
42.1818	83.0000
42.1910	89.0000
42.2002	63.0000
42.2095	98.0000
42.2187	85.0000
42.2279	87.0000
42.2371	95.0000
42.2464	90.0000
42.2556	96.0000
42.2648	90.0000
42.2740	92.0000
42.2832	83.0000
42.2925	90.0000
42.3017	73.0000
42.3109	91.0000
42.3201	85.0000
42.3294	76.0000
42.3386	82.0000
42.3478	87.0000
42.3570	73.0000
42.3663	77.0000
42.3755	87.0000
42.3847	88.0000
42.3939	76.0000
42.4031	77.0000
42.4124	88.0000
42.4216	84.0000
42.4308	77.0000
42.4400	75.0000
42.4493	83.0000
42.4585	82.0000
42.4677	78.0000
42.4769	76.0000
42.4861	79.0000
42.4954	83.0000
42.5046	80.0000
42.5138	79.0000
42.5230	94.0000
42.5323	92.0000
42.5415	67.0000
42.5507	81.0000
42.5599	84.0000
42.5692	92.0000
42.5784	77.0000
42.5876	67.0000
42.5968	70.0000
42.6060	83.0000
42.6153	79.0000
42.6245	63.0000
42.6337	90.0000
42.6429	101.0000
42.6522	83.0000
42.6614	94.0000
42.6706	77.0000
42.6798	93.0000
42.6890	91.0000
42.6983	61.0000
42.7075	73.0000
42.7167	86.0000
42.7259	89.0000
42.7352	81.0000
42.7444	83.0000
42.7536	89.0000
42.7628	84.0000
42.7720	73.0000
42.7813	98.0000
42.7905	88.0000
42.7997	86.0000
42.8089	81.0000
42.8182	83.0000
42.8274	86.0000
42.8366	83.0000
42.8458	75.0000
42.8551	74.0000
42.8643	90.0000
42.8735	77.0000
42.8827	70.0000
42.8919	68.0000
42.9012	81.0000
42.9104	77.0000
42.9196	81.0000
42.9288	87.0000
42.9381	95.0000
42.9473	79.0000
42.9565	79.0000
42.9657	72.0000
42.9749	80.0000
42.9842	84.0000
42.9934	87.0000
43.0026	100.0000
43.0118	85.0000
43.0211	106.0000
43.0303	85.0000
43.0395	85.0000
43.0487	106.0000
43.0580	75.0000
43.0672	89.0000
43.0764	88.0000
43.0856	80.0000
43.0948	79.0000
43.1041	80.0000
43.1133	96.0000
43.1225	86.0000
43.1317	87.0000
43.1410	63.0000
43.1502	88.0000
43.1594	88.0000
43.1686	93.0000
43.1778	80.0000
43.1871	83.0000
43.1963	76.0000
43.2055	89.0000
43.2147	82.0000
43.2240	68.0000
43.2332	83.0000
43.2424	86.0000
43.2516	79.0000
43.2609	83.0000
43.2701	90.0000
43.2793	85.0000
43.2885	78.0000
43.2977	94.0000
43.3070	86.0000
43.3162	110.0000
43.3254	113.0000
43.3346	133.0000
43.3439	192.0000
43.3531	212.0000
43.3623	253.0000
43.3715	263.0000
43.3807	197.0000
43.3900	155.0000
43.3992	113.0000
43.4084	89.0000
43.4176	120.0000
43.4269	86.0000
43.4361	99.0000
43.4453	100.0000
43.4545	82.0000
43.4637	85.0000
43.4730	83.0000
43.4822	71.0000
43.4914	80.0000
43.5006	85.0000
43.5099	80.0000
43.5191	87.0000
43.5283	97.0000
43.5375	79.0000
43.5468	94.0000
43.5560	88.0000
43.5652	94.0000
43.5744	90.0000
43.5836	93.0000
43.5929	81.0000
43.6021	112.0000
43.6113	123.0000
43.6205	123.0000
43.6298	159.0000
43.6390	176.0000
43.6482	154.0000
43.6574	118.0000
43.6666	98.0000
43.6759	101.0000
43.6851	101.0000
43.6943	83.0000
43.7035	75.0000
43.7128	93.0000
43.7220	85.0000
43.7312	88.0000
43.7404	80.0000
43.7497	83.0000
43.7589	90.0000
43.7681	72.0000
43.7773	93.0000
43.7865	74.0000
43.7958	68.0000
43.8050	82.0000
43.8142	87.0000
43.8234	87.0000
43.8327	81.0000
43.8419	70.0000
43.8511	89.0000
43.8603	94.0000
43.8695	82.0000
43.8788	74.0000
43.8880	82.0000
43.8972	72.0000
43.9064	98.0000
43.9157	69.0000
43.9249	78.0000
43.9341	81.0000
43.9433	90.0000
43.9525	79.0000
43.9618	82.0000
43.9710	87.0000
43.9802	91.0000
43.9894	74.0000
43.9987	87.0000
44.0079	76.0000
44.0171	66.0000
44.0263	80.0000
44.0356	84.0000
44.0448	81.0000
44.0540	67.0000
44.0632	82.0000
44.0724	94.0000
44.0817	77.0000
44.0909	101.0000
44.1001	65.0000
44.1093	88.0000
44.1186	80.0000
44.1278	86.0000
44.1370	73.0000
44.1462	79.0000
44.1554	84.0000
44.1647	86.0000
44.1739	78.0000
44.1831	77.0000
44.1923	78.0000
44.2016	76.0000
44.2108	69.0000
44.2200	86.0000
44.2292	74.0000
44.2385	72.0000
44.2477	70.0000
44.2569	76.0000
44.2661	74.0000
44.2753	67.0000
44.2846	78.0000
44.2938	78.0000
44.3030	78.0000
44.3122	78.0000
44.3215	81.0000
44.3307	79.0000
44.3399	73.0000
44.3491	57.0000
44.3583	64.0000
44.3676	70.0000
44.3768	67.0000
44.3860	67.0000
44.3952	70.0000
44.4045	75.0000
44.4137	68.0000
44.4229	77.0000
44.4321	71.0000
44.4414	68.0000
44.4506	73.0000
44.4598	75.0000
44.4690	81.0000
44.4782	77.0000
44.4875	87.0000
44.4967	78.0000
44.5059	81.0000
44.5151	78.0000
44.5244	75.0000
44.5336	79.0000
44.5428	81.0000
44.5520	76.0000
44.5612	96.0000
44.5705	73.0000
44.5797	87.0000
44.5889	78.0000
44.5981	78.0000
44.6074	67.0000
44.6166	82.0000
44.6258	71.0000
44.6350	91.0000
44.6442	85.0000
44.6535	63.0000
44.6627	85.0000
44.6719	77.0000
44.6811	87.0000
44.6904	88.0000
44.6996	69.0000
44.7088	81.0000
44.7180	68.0000
44.7273	82.0000
44.7365	67.0000
44.7457	66.0000
44.7549	63.0000
44.7641	65.0000
44.7734	81.0000
44.7826	65.0000
44.7918	49.0000
44.8010	66.0000
44.8103	89.0000
44.8195	71.0000
44.8287	80.0000
44.8379	66.0000
44.8471	85.0000
44.8564	67.0000
44.8656	69.0000
44.8748	84.0000
44.8840	76.0000
44.8933	62.0000
44.9025	73.0000
44.9117	73.0000
44.9209	77.0000
44.9302	79.0000
44.9394	67.0000
44.9486	84.0000
44.9578	55.0000
44.9670	75.0000
44.9763	77.0000
44.9855	88.0000
44.9947	68.0000
45.0039	73.0000
45.0132	84.0000
45.0224	67.0000
45.0316	73.0000
45.0408	72.0000
45.0500	79.0000
45.0593	77.0000
45.0685	76.0000
45.0777	72.0000
45.0869	57.0000
45.0962	79.0000
45.1054	76.0000
45.1146	89.0000
45.1238	74.0000
45.1330	81.0000
45.1423	70.0000
45.1515	69.0000
45.1607	63.0000
45.1699	73.0000
45.1792	66.0000
45.1884	83.0000
45.1976	66.0000
45.2068	95.0000
45.2161	75.0000
45.2253	88.0000
45.2345	72.0000
45.2437	88.0000
45.2529	88.0000
45.2622	80.0000
45.2714	75.0000
45.2806	89.0000
45.2898	75.0000
45.2991	68.0000
45.3083	58.0000
45.3175	69.0000
45.3267	84.0000
45.3359	75.0000
45.3452	67.0000
45.3544	72.0000
45.3636	82.0000
45.3728	88.0000
45.3821	82.0000
45.3913	73.0000
45.4005	80.0000
45.4097	61.0000
45.4190	60.0000
45.4282	81.0000
45.4374	68.0000
45.4466	77.0000
45.4558	64.0000
45.4651	73.0000
45.4743	78.0000
45.4835	79.0000
45.4927	76.0000
45.5020	83.0000
45.5112	86.0000
45.5204	81.0000
45.5296	67.0000
45.5388	65.0000
45.5481	79.0000
45.5573	79.0000
45.5665	69.0000
45.5757	68.0000
45.5850	67.0000
45.5942	76.0000
45.6034	77.0000
45.6126	65.0000
45.6219	77.0000
45.6311	70.0000
45.6403	71.0000
45.6495	81.0000
45.6587	74.0000
45.6680	55.0000
45.6772	66.0000
45.6864	76.0000
45.6956	65.0000
45.7049	79.0000
45.7141	66.0000
45.7233	87.0000
45.7325	81.0000
45.7417	76.0000
45.7510	61.0000
45.7602	75.0000
45.7694	59.0000
45.7786	83.0000
45.7879	74.0000
45.7971	69.0000
45.8063	77.0000
45.8155	73.0000
45.8247	74.0000
45.8340	67.0000
45.8432	76.0000
45.8524	63.0000
45.8616	71.0000
45.8709	67.0000
45.8801	74.0000
45.8893	69.0000
45.8985	60.0000
45.9078	77.0000
45.9170	70.0000
45.9262	86.0000
45.9354	83.0000
45.9446	74.0000
45.9539	73.0000
45.9631	66.0000
45.9723	73.0000
45.9815	71.0000
45.9908	80.0000
46.0000	65.0000
46.0092	71.0000
46.0184	68.0000
46.0276	74.0000
46.0369	63.0000
46.0461	76.0000
46.0553	68.0000
46.0645	67.0000
46.0738	78.0000
46.0830	79.0000
46.0922	72.0000
46.1014	82.0000
46.1107	85.0000
46.1199	68.0000
46.1291	68.0000
46.1383	71.0000
46.1475	68.0000
46.1568	57.0000
46.1660	81.0000
46.1752	82.0000
46.1844	69.0000
46.1937	94.0000
46.2029	58.0000
46.2121	64.0000
46.2213	64.0000
46.2305	71.0000
46.2398	60.0000
46.2490	71.0000
46.2582	78.0000
46.2674	75.0000
46.2767	81.0000
46.2859	76.0000
46.2951	64.0000
46.3043	80.0000
46.3135	73.0000
46.3228	70.0000
46.3320	63.0000
46.3412	69.0000
46.3504	68.0000
46.3597	64.0000
46.3689	69.0000
46.3781	70.0000
46.3873	80.0000
46.3966	69.0000
46.4058	93.0000
46.4150	60.0000
46.4242	62.0000
46.4334	62.0000
46.4427	55.0000
46.4519	63.0000
46.4611	72.0000
46.4703	71.0000
46.4796	67.0000
46.4888	83.0000
46.4980	63.0000
46.5072	75.0000
46.5164	63.0000
46.5257	61.0000
46.5349	67.0000
46.5441	62.0000
46.5533	64.0000
46.5626	57.0000
46.5718	63.0000
46.5810	69.0000
46.5902	66.0000
46.5995	81.0000
46.6087	72.0000
46.6179	68.0000
46.6271	59.0000
46.6363	69.0000
46.6456	61.0000
46.6548	72.0000
46.6640	76.0000
46.6732	75.0000
46.6825	73.0000
46.6917	81.0000
46.7009	66.0000
46.7101	79.0000
46.7193	65.0000
46.7286	54.0000
46.7378	70.0000
46.7470	69.0000
46.7562	81.0000
46.7655	77.0000
46.7747	72.0000
46.7839	75.0000
46.7931	61.0000
46.8024	70.0000
46.8116	65.0000
46.8208	64.0000
46.8300	79.0000
46.8392	59.0000
46.8485	68.0000
46.8577	69.0000
46.8669	68.0000
46.8761	69.0000
46.8854	59.0000
46.8946	71.0000
46.9038	79.0000
46.9130	51.0000
46.9222	60.0000
46.9315	72.0000
46.9407	53.0000
46.9499	59.0000
46.9591	63.0000
46.9684	51.0000
46.9776	66.0000
46.9868	68.0000
46.9960	89.0000
47.0052	67.0000
47.0145	52.0000
47.0237	74.0000
47.0329	65.0000
47.0421	59.0000
47.0514	83.0000
47.0606	69.0000
47.0698	62.0000
47.0790	76.0000
47.0883	57.0000
47.0975	62.0000
47.1067	67.0000
47.1159	61.0000
47.1251	76.0000
47.1344	65.0000
47.1436	71.0000
47.1528	78.0000
47.1620	78.0000
47.1713	68.0000
47.1805	55.0000
47.1897	64.0000
47.1989	65.0000
47.2081	78.0000
47.2174	43.0000
47.2266	54.0000
47.2358	64.0000
47.2450	59.0000
47.2543	74.0000
47.2635	69.0000
47.2727	69.0000
47.2819	47.0000
47.2912	74.0000
47.3004	65.0000
47.3096	69.0000
47.3188	65.0000
47.3280	76.0000
47.3373	67.0000
47.3465	68.0000
47.3557	60.0000
47.3649	78.0000
47.3742	73.0000
47.3834	78.0000
47.3926	68.0000
47.4018	82.0000
47.4110	62.0000
47.4203	53.0000
47.4295	66.0000
47.4387	71.0000
47.4479	69.0000
47.4572	66.0000
47.4664	63.0000
47.4756	62.0000
47.4848	78.0000
47.4940	68.0000
47.5033	67.0000
47.5125	59.0000
47.5217	68.0000
47.5309	62.0000
47.5402	76.0000
47.5494	67.0000
47.5586	71.0000
47.5678	60.0000
47.5771	60.0000
47.5863	60.0000
47.5955	63.0000
47.6047	60.0000
47.6139	47.0000
47.6232	74.0000
47.6324	59.0000
47.6416	59.0000
47.6508	63.0000
47.6601	58.0000
47.6693	63.0000
47.6785	66.0000
47.6877	66.0000
47.6969	66.0000
47.7062	62.0000
47.7154	62.0000
47.7246	49.0000
47.7338	62.0000
47.7431	49.0000
47.7523	61.0000
47.7615	59.0000
47.7707	49.0000
47.7800	60.0000
47.7892	71.0000
47.7984	66.0000
47.8076	52.0000
47.8168	56.0000
47.8261	54.0000
47.8353	48.0000
47.8445	77.0000
47.8537	52.0000
47.8630	63.0000
47.8722	74.0000
47.8814	65.0000
47.8906	55.0000
47.8998	67.0000
47.9091	63.0000
47.9183	74.0000
47.9275	52.0000
47.9367	71.0000
47.9460	66.0000
47.9552	73.0000
47.9644	69.0000
47.9736	48.0000
47.9829	78.0000
47.9921	59.0000
48.0013	57.0000
