11.0000	485.0000
11.0092	476.0000
11.0184	492.0000
11.0277	462.0000
11.0369	469.0000
11.0461	474.0000
11.0553	475.0000
11.0646	485.0000
11.0738	438.0000
11.0830	470.0000
11.0922	491.0000
11.1014	469.0000
11.1107	437.0000
11.1199	495.0000
11.1291	468.0000
11.1383	492.0000
11.1476	449.0000
11.1568	461.0000
11.1660	467.0000
11.1752	432.0000
11.1845	447.0000
11.1937	456.0000
11.2029	443.0000
11.2121	447.0000
11.2213	451.0000
11.2306	440.0000
11.2398	445.0000
11.2490	436.0000
11.2582	474.0000
11.2675	428.0000
11.2767	444.0000
11.2859	457.0000
11.2951	454.0000
11.3043	423.0000
11.3136	434.0000
11.3228	433.0000
11.3320	483.0000
11.3412	419.0000
11.3505	446.0000
11.3597	402.0000
11.3689	397.0000
11.3781	435.0000
11.3874	430.0000
11.3966	468.0000
11.4058	429.0000
11.4150	434.0000
11.4242	430.0000
11.4335	464.0000
11.4427	422.0000
11.4519	400.0000
11.4611	414.0000
11.4704	420.0000
11.4796	450.0000
11.4888	421.0000
11.4980	432.0000
11.5072	424.0000
11.5165	446.0000
11.5257	408.0000
11.5349	425.0000
11.5441	418.0000
11.5534	439.0000
11.5626	446.0000
11.5718	422.0000
11.5810	417.0000
11.5902	406.0000
11.5995	397.0000
11.6087	390.0000
11.6179	351.0000
11.6271	397.0000
11.6364	389.0000
11.6456	402.0000
11.6548	414.0000
11.6640	386.0000
11.6733	396.0000
11.6825	388.0000
11.6917	412.0000
11.7009	390.0000
11.7101	365.0000
11.7194	422.0000
11.7286	359.0000
11.7378	366.0000
11.7470	377.0000
11.7563	390.0000
11.7655	381.0000
11.7747	391.0000
11.7839	365.0000
11.7931	366.0000
11.8024	412.0000
11.8116	359.0000
11.8208	363.0000
11.8300	386.0000
11.8393	367.0000
11.8485	367.0000
11.8577	384.0000
11.8669	406.0000
11.8762	361.0000
11.8854	350.0000
11.8946	374.0000
11.9038	359.0000
11.9130	387.0000
11.9223	381.0000
11.9315	352.0000
11.9407	357.0000
11.9499	370.0000
11.9592	383.0000
11.9684	335.0000
11.9776	377.0000
11.9868	335.0000
11.9960	371.0000
12.0053	357.0000
12.0145	329.0000
12.0237	367.0000
12.0329	375.0000
12.0422	374.0000
12.0514	375.0000
12.0606	349.0000
12.0698	324.0000
12.0791	348.0000
12.0883	332.0000
12.0975	368.0000
12.1067	344.0000
12.1159	359.0000
12.1252	371.0000
12.1344	337.0000
12.1436	352.0000
12.1528	344.0000
12.1621	331.0000
12.1713	321.0000
12.1805	334.0000
12.1897	335.0000
12.1989	318.0000
12.2082	328.0000
12.2174	348.0000
12.2266	346.0000
12.2358	334.0000
12.2451	337.0000
12.2543	309.0000
12.2635	345.0000
12.2727	323.0000
12.2819	334.0000
12.2912	344.0000
12.3004	313.0000
12.3096	360.0000
12.3188	318.0000
12.3281	333.0000
12.3373	315.0000
12.3465	300.0000
12.3557	328.0000
12.3650	334.0000
12.3742	340.0000
12.3834	307.0000
12.3926	330.0000
12.4018	331.0000
12.4111	334.0000
12.4203	325.0000
12.4295	331.0000
12.4387	339.0000
12.4480	332.0000
12.4572	306.0000
12.4664	297.0000
12.4756	310.0000
12.4848	340.0000
12.4941	313.0000
12.5033	327.0000
12.5125	298.0000
12.5217	290.0000
12.5310	312.0000
12.5402	347.0000
12.5494	312.0000
12.5586	304.0000
12.5679	302.0000
12.5771	303.0000
12.5863	323.0000
12.5955	336.0000
12.6047	312.0000
12.6140	289.0000
12.6232	283.0000
12.6324	306.0000
12.6416	284.0000
12.6509	312.0000
12.6601	303.0000
12.6693	307.0000
12.6785	302.0000
12.6877	302.0000
12.6970	288.0000
12.7062	295.0000
12.7154	338.0000
12.7246	314.0000
12.7339	295.0000
12.7431	319.0000
12.7523	304.0000
12.7615	315.0000
12.7707	298.0000
12.7800	312.0000
12.7892	295.0000
12.7984	276.0000
12.8076	299.0000
12.8169	284.0000
12.8261	288.0000
12.8353	328.0000
12.8445	277.0000
12.8538	274.0000
12.8630	302.0000
12.8722	288.0000
12.8814	254.0000
12.8906	270.0000
12.8999	307.0000
12.9091	277.0000
12.9183	255.0000
12.9275	302.0000
12.9368	300.0000
12.9460	266.0000
12.9552	272.0000
12.9644	268.0000
12.9736	283.0000
12.9829	281.0000
12.9921	299.0000
13.0013	280.0000
13.0105	272.0000
13.0198	284.0000
13.0290	269.0000
13.0382	300.0000
13.0474	273.0000
13.0567	263.0000
13.0659	281.0000
13.0751	269.0000
13.0843	291.0000
13.0935	255.0000
13.1028	277.0000
13.1120	293.0000
13.1212	266.0000
13.1304	235.0000
13.1397	232.0000
13.1489	242.0000
13.1581	273.0000
13.1673	273.0000
13.1765	271.0000
13.1858	251.0000
13.1950	274.0000
13.2042	263.0000
13.2134	253.0000
13.2227	300.0000
13.2319	260.0000
13.2411	262.0000
13.2503	268.0000
13.2596	267.0000
13.2688	245.0000
13.2780	264.0000
13.2872	272.0000
13.2964	287.0000
13.3057	264.0000
13.3149	271.0000
13.3241	289.0000
13.3333	264.0000
13.3426	248.0000
13.3518	266.0000
13.3610	233.0000
13.3702	268.0000
13.3794	255.0000
13.3887	282.0000
13.3979	261.0000
13.4071	273.0000
13.4163	276.0000
13.4256	227.0000
13.4348	259.0000
13.4440	239.0000
13.4532	219.0000
13.4624	256.0000
13.4717	235.0000
13.4809	228.0000
13.4901	258.0000
13.4993	254.0000
13.5086	233.0000
13.5178	232.0000
13.5270	246.0000
13.5362	252.0000
13.5455	258.0000
13.5547	269.0000
13.5639	250.0000
13.5731	247.0000
13.5823	255.0000
13.5916	228.0000
13.6008	258.0000
13.6100	233.0000
13.6192	265.0000
13.6285	273.0000
13.6377	266.0000
13.6469	263.0000
13.6561	235.0000
13.6653	236.0000
13.6746	251.0000
13.6838	223.0000
13.6930	248.0000
13.7022	245.0000
13.7115	263.0000
13.7207	260.0000
13.7299	259.0000
13.7391	262.0000
13.7484	222.0000
13.7576	282.0000
13.7668	228.0000
13.7760	225.0000
13.7852	258.0000
13.7945	252.0000
13.8037	213.0000
13.8129	245.0000
13.8221	270.0000
13.8314	247.0000
13.8406	225.0000
13.8498	260.0000
13.8590	220.0000
13.8682	230.0000
13.8775	253.0000
13.8867	218.0000
13.8959	231.0000
13.9051	238.0000
13.9144	222.0000
13.9236	223.0000
13.9328	227.0000
13.9420	213.0000
13.9512	222.0000
13.9605	216.0000
13.9697	189.0000
13.9789	243.0000
13.9881	258.0000
13.9974	230.0000
14.0066	234.0000
14.0158	228.0000
14.0250	247.0000
14.0343	246.0000
14.0435	196.0000
14.0527	218.0000
14.0619	253.0000
14.0711	204.0000
14.0804	244.0000
14.0896	224.0000
14.0988	252.0000
14.1080	218.0000
14.1173	214.0000
14.1265	231.0000
14.1357	236.0000
14.1449	236.0000
14.1541	214.0000
14.1634	206.0000
14.1726	212.0000
14.1818	194.0000
14.1910	242.0000
14.2003	224.0000
14.2095	224.0000
14.2187	235.0000
14.2279	227.0000
14.2372	198.0000
14.2464	247.0000
14.2556	207.0000
14.2648	206.0000
14.2740	199.0000
14.2833	235.0000
14.2925	217.0000
14.3017	223.0000
14.3109	222.0000
14.3202	232.0000
14.3294	230.0000
14.3386	230.0000
14.3478	242.0000
14.3570	220.0000
14.3663	205.0000
14.3755	238.0000
14.3847	217.0000
14.3939	233.0000
14.4032	225.0000
14.4124	224.0000
14.4216	211.0000
14.4308	215.0000
14.4401	207.0000
14.4493	213.0000
14.4585	200.0000
14.4677	214.0000
14.4769	192.0000
14.4862	230.0000
14.4954	245.0000
14.5046	220.0000
14.5138	228.0000
14.5231	217.0000
14.5323	212.0000
14.5415	210.0000
14.5507	204.0000
14.5599	212.0000
14.5692	186.0000
14.5784	196.0000
14.5876	224.0000
14.5968	208.0000
14.6061	196.0000
14.6153	212.0000
14.6245	223.0000
14.6337	213.0000
14.6429	209.0000
14.6522	233.0000
14.6614	221.0000
14.6706	216.0000
14.6798	187.0000
14.6891	213.0000
14.6983	189.0000
14.7075	197.0000
14.7167	223.0000
14.7260	206.0000
14.7352	210.0000
14.7444	225.0000
14.7536	207.0000
14.7628	210.0000
14.7721	212.0000
14.7813	215.0000
14.7905	244.0000
14.7997	212.0000
14.8090	210.0000
14.8182	211.0000
14.8274	203.0000
14.8366	209.0000
14.8458	203.0000
14.8551	190.0000
14.8643	184.0000
14.8735	198.0000
14.8827	193.0000
14.8920	219.0000
14.9012	200.0000
14.9104	212.0000
14.9196	212.0000
14.9289	225.0000
14.9381	181.0000
14.9473	198.0000
14.9565	198.0000
14.9657	206.0000
14.9750	187.0000
14.9842	200.0000
14.9934	199.0000
15.0026	203.0000
15.0119	201.0000
15.0211	176.0000
15.0303	244.0000
15.0395	219.0000
15.0487	181.0000
15.0580	186.0000
15.0672	192.0000
15.0764	207.0000
15.0856	189.0000
15.0949	197.0000
15.1041	193.0000
15.1133	183.0000
15.1225	170.0000
15.1317	192.0000
15.1410	205.0000
15.1502	187.0000
15.1594	197.0000
15.1686	206.0000
15.1779	195.0000
15.1871	205.0000
15.1963	168.0000
15.2055	203.0000
15.2148	195.0000
15.2240	193.0000
15.2332	187.0000
15.2424	209.0000
15.2516	198.0000
15.2609	217.0000
15.2701	194.0000
15.2793	187.0000
15.2885	192.0000
15.2978	201.0000
15.3070	201.0000
15.3162	199.0000
15.3254	178.0000
15.3346	179.0000
15.3439	186.0000
15.3531	180.0000
15.3623	176.0000
15.3715	197.0000
15.3808	194.0000
15.3900	184.0000
15.3992	191.0000
15.4084	173.0000
15.4177	179.0000
15.4269	189.0000
15.4361	207.0000
15.4453	194.0000
15.4545	184.0000
15.4638	190.0000
15.4730	185.0000
15.4822	162.0000
15.4914	201.0000
15.5007	183.0000
15.5099	182.0000
15.5191	187.0000
15.5283	165.0000
15.5375	199.0000
15.5468	199.0000
15.5560	184.0000
15.5652	197.0000
15.5744	201.0000
15.5837	199.0000
15.5929	180.0000
15.6021	214.0000
15.6113	189.0000
15.6206	183.0000
15.6298	187.0000
15.6390	178.0000
15.6482	208.0000
15.6574	182.0000
15.6667	182.0000
15.6759	175.0000
15.6851	169.0000
15.6943	192.0000
15.7036	171.0000
15.7128	219.0000
15.7220	182.0000
15.7312	175.0000
15.7404	205.0000
15.7497	181.0000
15.7589	202.0000
15.7681	203.0000
15.7773	186.0000
15.7866	174.0000
15.7958	166.0000
15.8050	151.0000
15.8142	160.0000
15.8234	169.0000
15.8327	180.0000
15.8419	186.0000
15.8511	184.0000
15.8603	201.0000
15.8696	196.0000
15.8788	171.0000
15.8880	176.0000
15.8972	195.0000
15.9065	178.0000
15.9157	182.0000
15.9249	189.0000
15.9341	180.0000
15.9433	198.0000
15.9526	185.0000
15.9618	170.0000
15.9710	154.0000
15.9802	168.0000
15.9895	197.0000
15.9987	185.0000
16.0079	189.0000
16.0171	190.0000
16.0263	167.0000
16.0356	165.0000
16.0448	198.0000
16.0540	204.0000
16.0632	183.0000
16.0725	165.0000
16.0817	195.0000
16.0909	192.0000
16.1001	152.0000
16.1094	166.0000
16.1186	185.0000
16.1278	176.0000
16.1370	173.0000
16.1462	184.0000
16.1555	186.0000
16.1647	166.0000
16.1739	177.0000
16.1831	170.0000
16.1924	185.0000
16.2016	182.0000
16.2108	186.0000
16.2200	157.0000
16.2292	177.0000
16.2385	194.0000
16.2477	166.0000
16.2569	183.0000
16.2661	158.0000
16.2754	182.0000
16.2846	175.0000
16.2938	142.0000
16.3030	177.0000
16.3122	193.0000
16.3215	191.0000
16.3307	176.0000
16.3399	153.0000
16.3491	156.0000
16.3584	153.0000
16.3676	186.0000
16.3768	176.0000
16.3860	173.0000
16.3953	191.0000
16.4045	159.0000
16.4137	177.0000
16.4229	217.0000
16.4321	165.0000
16.4414	155.0000
16.4506	155.0000
16.4598	167.0000
16.4690	184.0000
16.4783	156.0000
16.4875	190.0000
16.4967	166.0000
16.5059	171.0000
16.5151	202.0000
16.5244	173.0000
16.5336	160.0000
16.5428	200.0000
16.5520	159.0000
16.5613	164.0000
16.5705	153.0000
16.5797	175.0000
16.5889	161.0000
16.5982	148.0000
16.6074	146.0000
16.6166	189.0000
16.6258	195.0000
16.6350	164.0000
16.6443	154.0000
16.6535	149.0000
16.6627	151.0000
16.6719	168.0000
16.6812	177.0000
16.6904	154.0000
16.6996	155.0000
16.7088	160.0000
16.7180	176.0000
16.7273	174.0000
16.7365	180.0000
16.7457	149.0000
16.7549	181.0000
16.7642	164.0000
16.7734	155.0000
16.7826	164.0000
16.7918	179.0000
16.8011	161.0000
16.8103	173.0000
16.8195	164.0000
16.8287	143.0000
16.8379	175.0000
16.8472	160.0000
16.8564	146.0000
16.8656	176.0000
16.8748	153.0000
16.8841	135.0000
16.8933	182.0000
16.9025	171.0000
16.9117	165.0000
16.9209	163.0000
16.9302	161.0000
16.9394	161.0000
16.9486	171.0000
16.9578	151.0000
16.9671	162.0000
16.9763	159.0000
16.9855	151.0000
16.9947	153.0000
17.0039	153.0000
17.0132	145.0000
17.0224	159.0000
17.0316	158.0000
17.0408	161.0000
17.0501	166.0000
17.0593	152.0000
17.0685	155.0000
17.0777	132.0000
17.0870	162.0000
17.0962	123.0000
17.1054	148.0000
17.1146	159.0000
17.1238	167.0000
17.1331	157.0000
17.1423	150.0000
17.1515	164.0000
17.1607	162.0000
17.1700	152.0000
17.1792	131.0000
17.1884	143.0000
17.1976	124.0000
17.2068	157.0000
17.2161	173.0000
17.2253	146.0000
17.2345	168.0000
17.2437	141.0000
17.2530	156.0000
17.2622	136.0000
17.2714	161.0000
17.2806	165.0000
17.2899	132.0000
17.2991	141.0000
17.3083	154.0000
17.3175	143.0000
17.3267	151.0000
17.3360	140.0000
17.3452	160.0000
17.3544	146.0000
17.3636	143.0000
17.3729	161.0000
17.3821	157.0000
17.3913	137.0000
17.4005	135.0000
17.4097	149.0000
17.4190	136.0000
17.4282	157.0000
17.4374	126.0000
17.4466	133.0000
17.4559	131.0000
17.4651	143.0000
17.4743	131.0000
17.4835	143.0000
17.4927	155.0000
17.5020	142.0000
17.5112	137.0000
17.5204	140.0000
17.5296	127.0000
17.5389	135.0000
17.5481	150.0000
17.5573	151.0000
17.5665	171.0000
17.5758	135.0000
17.5850	148.0000
17.5942	129.0000
17.6034	143.0000
17.6126	138.0000
17.6219	159.0000
17.6311	132.0000
17.6403	163.0000
17.6495	146.0000
17.6588	136.0000
17.6680	162.0000
17.6772	155.0000
17.6864	132.0000
17.6956	142.0000
17.7049	136.0000
17.7141	121.0000
17.7233	144.0000
17.7325	140.0000
17.7418	139.0000
17.7510	134.0000
17.7602	138.0000
17.7694	157.0000
17.7787	167.0000
17.7879	156.0000
17.7971	126.0000
17.8063	128.0000
17.8155	147.0000
17.8248	114.0000
17.8340	133.0000
17.8432	144.0000
17.8524	144.0000
17.8617	125.0000
17.8709	163.0000
17.8801	108.0000
17.8893	126.0000
17.8985	123.0000
17.9078	141.0000
17.9170	128.0000
17.9262	135.0000
17.9354	140.0000
17.9447	148.0000
17.9539	130.0000
17.9631	139.0000
17.9723	136.0000
17.9816	139.0000
17.9908	162.0000
18.0000	116.0000
18.0092	130.0000
18.0184	144.0000
18.0277	143.0000
18.0369	117.0000
18.0461	144.0000
18.0553	139.0000
18.0646	126.0000
18.0738	118.0000
18.0830	133.0000
18.0922	167.0000
18.1014	130.0000
18.1107	152.0000
18.1199	142.0000
18.1291	137.0000
18.1383	121.0000
18.1476	142.0000
18.1568	125.0000
18.1660	140.0000
18.1752	127.0000
18.1844	137.0000
18.1937	122.0000
18.2029	143.0000
18.2121	148.0000
18.2213	159.0000
18.2306	152.0000
18.2398	121.0000
18.2490	130.0000
18.2582	123.0000
18.2675	133.0000
18.2767	144.0000
18.2859	121.0000
18.2951	131.0000
18.3043	157.0000
18.3136	131.0000
18.3228	155.0000
18.3320	128.0000
18.3412	130.0000
18.3505	129.0000
18.3597	137.0000
18.3689	157.0000
18.3781	138.0000
18.3873	139.0000
18.3966	116.0000
18.4058	154.0000
18.4150	143.0000
18.4242	144.0000
18.4335	132.0000
18.4427	144.0000
18.4519	124.0000
18.4611	140.0000
18.4704	129.0000
18.4796	131.0000
18.4888	122.0000
18.4980	134.0000
18.5072	128.0000
18.5165	134.0000
18.5257	148.0000
18.5349	136.0000
18.5441	133.0000
18.5534	127.0000
18.5626	129.0000
18.5718	114.0000
18.5810	130.0000
18.5902	159.0000
18.5995	130.0000
18.6087	162.0000
18.6179	139.0000
18.6271	171.0000
18.6364	118.0000
18.6456	119.0000
18.6548	139.0000
18.6640	125.0000
18.6732	134.0000
18.6825	127.0000
18.6917	147.0000
18.7009	143.0000
18.7101	122.0000
18.7194	124.0000
18.7286	147.0000
18.7378	128.0000
18.7470	146.0000
18.7563	102.0000
18.7655	123.0000
18.7747	141.0000
18.7839	147.0000
18.7931	101.0000
18.8024	127.0000
18.8116	126.0000
18.8208	139.0000
18.8300	134.0000
18.8393	122.0000
18.8485	135.0000
18.8577	126.0000
18.8669	140.0000
18.8761	144.0000
18.8854	154.0000
18.8946	158.0000
18.9038	125.0000
18.9130	135.0000
18.9223	102.0000
18.9315	141.0000
18.9407	118.0000
18.9499	144.0000
18.9592	150.0000
18.9684	143.0000
18.9776	117.0000
18.9868	146.0000
18.9960	121.0000
19.0053	128.0000
19.0145	148.0000
19.0237	144.0000
19.0329	154.0000
19.0422	147.0000
19.0514	132.0000
19.0606	113.0000
19.0698	144.0000
19.0790	128.0000
19.0883	140.0000
19.0975	145.0000
19.1067	144.0000
19.1159	138.0000
19.1252	127.0000
19.1344	137.0000
19.1436	154.0000
19.1528	166.0000
19.1621	140.0000
19.1713	124.0000
19.1805	157.0000
19.1897	136.0000
19.1989	133.0000
19.2082	139.0000
19.2174	132.0000
19.2266	144.0000
19.2358	135.0000
19.2451	138.0000
19.2543	139.0000
19.2635	148.0000
19.2727	108.0000
19.2819	133.0000
19.2912	143.0000
19.3004	141.0000
19.3096	170.0000
19.3188	146.0000
19.3281	135.0000
19.3373	121.0000
19.3465	125.0000
19.3557	135.0000
19.3649	137.0000
19.3742	133.0000
19.3834	124.0000
19.3926	108.0000
19.4018	142.0000
19.4111	126.0000
19.4203	125.0000
19.4295	131.0000
19.4387	150.0000
19.4480	155.0000
19.4572	124.0000
19.4664	114.0000
19.4756	139.0000
19.4848	115.0000
19.4941	123.0000
19.5033	114.0000
19.5125	126.0000
19.5217	147.0000
19.5310	129.0000
19.5402	142.0000
19.5494	148.0000
19.5586	132.0000
19.5678	133.0000
19.5771	143.0000
19.5863	154.0000
19.5955	146.0000
19.6047	147.0000
19.6140	139.0000
19.6232	141.0000
19.6324	122.0000
19.6416	132.0000
19.6509	133.0000
19.6601	143.0000
19.6693	147.0000
19.6785	126.0000
19.6877	142.0000
19.6970	130.0000
19.7062	149.0000
19.7154	154.0000
19.7246	135.0000
19.7339	133.0000
19.7431	135.0000
19.7523	123.0000
19.7615	149.0000
19.7707	126.0000
19.7800	158.0000
19.7892	123.0000
19.7984	111.0000
19.8076	144.0000
19.8169	117.0000
19.8261	150.0000
19.8353	158.0000
19.8445	144.0000
19.8537	131.0000
19.8630	131.0000
19.8722	132.0000
19.8814	147.0000
19.8906	127.0000
19.8999	122.0000
19.9091	118.0000
19.9183	131.0000
19.9275	154.0000
19.9368	151.0000
19.9460	153.0000
19.9552	139.0000
19.9644	128.0000
19.9736	133.0000
19.9829	144.0000
19.9921	114.0000
20.0013	138.0000
20.0105	140.0000
20.0198	149.0000
20.0290	143.0000
20.0382	125.0000
20.0474	128.0000
20.0566	134.0000
20.0659	124.0000
20.0751	130.0000
20.0843	130.0000
20.0935	127.0000
20.1028	146.0000
20.1120	125.0000
20.1212	127.0000
20.1304	148.0000
20.1397	142.0000
20.1489	145.0000
20.1581	131.0000
20.1673	132.0000
20.1765	145.0000
20.1858	137.0000
20.1950	128.0000
20.2042	138.0000
20.2134	132.0000
20.2227	143.0000
20.2319	157.0000
20.2411	137.0000
20.2503	117.0000
20.2595	143.0000
20.2688	156.0000
20.2780	141.0000
20.2872	152.0000
20.2964	154.0000
20.3057	137.0000
20.3149	139.0000
20.3241	159.0000
20.3333	157.0000
20.3426	141.0000
20.3518	134.0000
20.3610	132.0000
20.3702	149.0000
20.3794	140.0000
20.3887	129.0000
20.3979	124.0000
20.4071	132.0000
20.4163	120.0000
20.4256	130.0000
20.4348	124.0000
20.4440	138.0000
20.4532	142.0000
20.4624	141.0000
20.4717	148.0000
20.4809	141.0000
20.4901	134.0000
20.4993	140.0000
20.5086	152.0000
20.5178	137.0000
20.5270	142.0000
20.5362	126.0000
20.5454	163.0000
20.5547	141.0000
20.5639	135.0000
20.5731	121.0000
20.5823	134.0000
20.5916	129.0000
20.6008	120.0000
20.6100	147.0000
20.6192	127.0000
20.6285	134.0000
20.6377	146.0000
20.6469	148.0000
20.6561	153.0000
20.6653	142.0000
20.6746	141.0000
20.6838	148.0000
20.6930	138.0000
20.7022	120.0000
20.7115	147.0000
20.7207	130.0000
20.7299	154.0000
20.7391	131.0000
20.7483	118.0000
20.7576	123.0000
20.7668	135.0000
20.7760	145.0000
20.7852	153.0000
20.7945	146.0000
20.8037	156.0000
20.8129	143.0000
20.8221	117.0000
20.8314	131.0000
20.8406	149.0000
20.8498	132.0000
20.8590	113.0000
20.8682	130.0000
20.8775	142.0000
20.8867	160.0000
20.8959	140.0000
20.9051	139.0000
20.9144	157.0000
20.9236	144.0000
20.9328	130.0000
20.9420	150.0000
20.9512	127.0000
20.9605	121.0000
20.9697	142.0000
20.9789	159.0000
20.9881	140.0000
20.9974	152.0000
21.0066	141.0000
21.0158	135.0000
21.0250	156.0000
21.0342	172.0000
21.0435	156.0000
21.0527	145.0000
21.0619	131.0000
21.0711	160.0000
21.0804	158.0000
21.0896	150.0000
21.0988	142.0000
21.1080	162.0000
21.1173	154.0000
21.1265	124.0000
21.1357	150.0000
21.1449	145.0000
21.1541	134.0000
21.1634	134.0000
21.1726	157.0000
21.1818	146.0000
21.1910	169.0000
21.2003	137.0000
21.2095	165.0000
21.2187	167.0000
21.2279	191.0000
21.2371	171.0000
21.2464	190.0000
21.2556	246.0000
21.2648	255.0000
21.2740	489.0000
21.2833	843.0000
21.2925	1257.0000
21.3017	1692.0000
21.3109	1651.0000
21.3202	1142.0000
21.3294	618.0000
21.3386	342.0000
21.3478	270.0000
21.3570	228.0000
21.3663	226.0000
21.3755	213.0000
21.3847	226.0000
21.3939	247.0000
21.4032	368.0000
21.4124	571.0000
21.4216	891.0000
21.4308	969.0000
21.4400	814.0000
21.4493	537.0000
21.4585	368.0000
21.4677	216.0000
21.4769	200.0000
21.4862	199.0000
21.4954	146.0000
21.5046	150.0000
21.5138	143.0000
21.5231	154.0000
21.5323	163.0000
21.5415	169.0000
21.5507	155.0000
21.5599	145.0000
21.5692	148.0000
21.5784	139.0000
21.5876	148.0000
21.5968	141.0000
21.6061	142.0000
21.6153	138.0000
21.6245	148.0000
21.6337	140.0000
21.6429	148.0000
21.6522	146.0000
21.6614	146.0000
21.6706	137.0000
21.6798	149.0000
21.6891	149.0000
21.6983	133.0000
21.7075	123.0000
21.7167	144.0000
21.7259	168.0000
21.7352	147.0000
21.7444	136.0000
21.7536	112.0000
21.7628	139.0000
21.7721	119.0000
21.7813	125.0000
21.7905	158.0000
21.7997	148.0000
21.8090	139.0000
21.8182	143.0000
21.8274	142.0000
21.8366	140.0000
21.8458	128.0000
21.8551	112.0000
21.8643	133.0000
21.8735	125.0000
21.8827	143.0000
21.8920	152.0000
21.9012	135.0000
21.9104	132.0000
21.9196	145.0000
21.9288	148.0000
21.9381	146.0000
21.9473	138.0000
21.9565	136.0000
21.9657	144.0000
21.9750	155.0000
21.9842	136.0000
21.9934	129.0000
22.0026	124.0000
22.0119	148.0000
22.0211	124.0000
22.0303	142.0000
22.0395	121.0000
22.0487	121.0000
22.0580	139.0000
22.0672	150.0000
22.0764	118.0000
22.0856	127.0000
22.0949	139.0000
22.1041	132.0000
22.1133	122.0000
22.1225	146.0000
22.1317	136.0000
22.1410	131.0000
22.1502	145.0000
22.1594	144.0000
22.1686	141.0000
22.1779	124.0000
22.1871	137.0000
22.1963	121.0000
22.2055	154.0000
22.2147	122.0000
22.2240	113.0000
22.2332	153.0000
22.2424	144.0000
22.2516	138.0000
22.2609	125.0000
22.2701	141.0000
22.2793	128.0000
22.2885	134.0000
22.2978	135.0000
22.3070	103.0000
22.3162	131.0000
22.3254	124.0000
22.3346	126.0000
22.3439	122.0000
22.3531	123.0000
22.3623	127.0000
22.3715	147.0000
22.3808	131.0000
22.3900	155.0000
22.3992	114.0000
22.4084	141.0000
22.4176	134.0000
22.4269	135.0000
22.4361	138.0000
22.4453	127.0000
22.4545	146.0000
22.4638	124.0000
22.4730	129.0000
22.4822	125.0000
22.4914	118.0000
22.5007	125.0000
22.5099	131.0000
22.5191	131.0000
22.5283	118.0000
22.5375	122.0000
22.5468	136.0000
22.5560	138.0000
22.5652	130.0000
22.5744	132.0000
22.5837	126.0000
22.5929	125.0000
22.6021	136.0000
22.6113	120.0000
22.6205	118.0000
22.6298	125.0000
22.6390	120.0000
22.6482	119.0000
22.6574	133.0000
22.6667	131.0000
22.6759	130.0000
22.6851	134.0000
22.6943	121.0000
22.7036	127.0000
22.7128	105.0000
22.7220	119.0000
22.7312	108.0000
22.7404	135.0000
22.7497	115.0000
22.7589	125.0000
22.7681	141.0000
22.7773	140.0000
22.7866	140.0000
22.7958	110.0000
22.8050	137.0000
22.8142	139.0000
22.8234	116.0000
22.8327	153.0000
22.8419	152.0000
22.8511	129.0000
22.8603	129.0000
22.8696	120.0000
22.8788	123.0000
22.8880	124.0000
22.8972	122.0000
22.9064	125.0000
22.9157	127.0000
22.9249	120.0000
22.9341	120.0000
22.9433	112.0000
22.9526	152.0000
22.9618	141.0000
22.9710	111.0000
22.9802	142.0000
22.9895	132.0000
22.9987	113.0000
23.0079	127.0000
23.0171	135.0000
23.0263	138.0000
23.0356	137.0000
23.0448	142.0000
23.0540	127.0000
23.0632	142.0000
23.0725	120.0000
23.0817	138.0000
23.0909	123.0000
23.1001	128.0000
23.1093	140.0000
23.1186	121.0000
23.1278	122.0000
23.1370	115.0000
23.1462	148.0000
23.1555	125.0000
23.1647	129.0000
23.1739	112.0000
23.1831	147.0000
23.1924	98.0000
23.2016	132.0000
23.2108	134.0000
23.2200	121.0000
23.2292	139.0000
23.2385	131.0000
23.2477	136.0000
23.2569	137.0000
23.2661	112.0000
23.2754	126.0000
23.2846	127.0000
23.2938	116.0000
23.3030	137.0000
23.3122	137.0000
23.3215	127.0000
23.3307	132.0000
23.3399	141.0000
23.3491	131.0000
23.3584	118.0000
23.3676	137.0000
23.3768	128.0000
23.3860	127.0000
23.3952	113.0000
23.4045	113.0000
23.4137	116.0000
23.4229	137.0000
23.4321	110.0000
23.4414	130.0000
23.4506	116.0000
23.4598	133.0000
23.4690	142.0000
23.4783	121.0000
23.4875	110.0000
23.4967	137.0000
23.5059	136.0000
23.5151	123.0000
23.5244	128.0000
23.5336	132.0000
23.5428	120.0000
23.5520	116.0000
23.5613	132.0000
23.5705	126.0000
23.5797	111.0000
23.5889	116.0000
23.5981	123.0000
23.6074	142.0000
23.6166	116.0000
23.6258	136.0000
23.6350	120.0000
23.6443	127.0000
23.6535	131.0000
23.6627	133.0000
23.6719	131.0000
23.6812	142.0000
23.6904	143.0000
23.6996	124.0000
23.7088	157.0000
23.7180	120.0000
23.7273	118.0000
23.7365	111.0000
23.7457	133.0000
23.7549	125.0000
23.7642	136.0000
23.7734	135.0000
23.7826	123.0000
23.7918	99.0000
23.8010	130.0000
23.8103	115.0000
23.8195	139.0000
23.8287	119.0000
23.8379	138.0000
23.8472	130.0000
23.8564	121.0000
23.8656	128.0000
23.8748	103.0000
23.8841	120.0000
23.8933	120.0000
23.9025	142.0000
23.9117	122.0000
23.9209	125.0000
23.9302	118.0000
23.9394	117.0000
23.9486	119.0000
23.9578	128.0000
23.9671	131.0000
23.9763	129.0000
23.9855	134.0000
23.9947	125.0000
24.0039	124.0000
24.0132	143.0000
24.0224	130.0000
24.0316	141.0000
24.0408	121.0000
24.0501	109.0000
24.0593	124.0000
24.0685	145.0000
24.0777	127.0000
24.0869	113.0000
24.0962	128.0000
24.1054	130.0000
24.1146	138.0000
24.1238	124.0000
24.1331	120.0000
24.1423	123.0000
24.1515	123.0000
24.1607	128.0000
24.1700	130.0000
24.1792	146.0000
24.1884	125.0000
24.1976	130.0000
24.2068	145.0000
24.2161	116.0000
24.2253	114.0000
24.2345	130.0000
24.2437	126.0000
24.2530	106.0000
24.2622	126.0000
24.2714	136.0000
24.2806	132.0000
24.2898	128.0000
24.2991	114.0000
24.3083	114.0000
24.3175	119.0000
24.3267	119.0000
24.3360	133.0000
24.3452	126.0000
24.3544	117.0000
24.3636	121.0000
24.3729	130.0000
24.3821	143.0000
24.3913	141.0000
24.4005	125.0000
24.4097	128.0000
24.4190	139.0000
24.4282	129.0000
24.4374	150.0000
24.4466	116.0000
24.4559	129.0000
24.4651	150.0000
24.4743	109.0000
24.4835	146.0000
24.4927	120.0000
24.5020	129.0000
24.5112	155.0000
24.5204	140.0000
24.5296	138.0000
24.5389	149.0000
24.5481	130.0000
24.5573	122.0000
24.5665	135.0000
24.5757	123.0000
24.5850	147.0000
24.5942	117.0000
24.6034	135.0000
24.6126	136.0000
24.6219	124.0000
24.6311	143.0000
24.6403	133.0000
24.6495	132.0000
24.6588	116.0000
24.6680	125.0000
24.6772	145.0000
24.6864	124.0000
24.6956	135.0000
24.7049	120.0000
24.7141	123.0000
24.7233	124.0000
24.7325	142.0000
24.7418	106.0000
24.7510	131.0000
24.7602	129.0000
24.7694	142.0000
24.7786	140.0000
24.7879	128.0000
24.7971	132.0000
24.8063	129.0000
24.8155	144.0000
24.8248	125.0000
24.8340	144.0000
24.8432	114.0000
24.8524	125.0000
24.8617	140.0000
24.8709	135.0000
24.8801	147.0000
24.8893	117.0000
24.8985	126.0000
24.9078	138.0000
24.9170	122.0000
24.9262	134.0000
24.9354	131.0000
24.9447	124.0000
24.9539	145.0000
24.9631	125.0000
24.9723	125.0000
24.9815	114.0000
24.9908	133.0000
25.0000	110.0000
25.0092	124.0000
25.0184	130.0000
25.0277	120.0000
25.0369	132.0000
25.0461	134.0000
25.0553	137.0000
25.0646	157.0000
25.0738	119.0000
25.0830	116.0000
25.0922	149.0000
25.1014	113.0000
25.1107	136.0000
25.1199	146.0000
25.1291	137.0000
25.1383	135.0000
25.1476	142.0000
25.1568	128.0000
25.1660	137.0000
25.1752	121.0000
25.1844	101.0000
25.1937	145.0000
25.2029	128.0000
25.2121	117.0000
25.2213	149.0000
25.2306	129.0000
25.2398	123.0000
25.2490	136.0000
25.2582	120.0000
25.2674	106.0000
25.2767	123.0000
25.2859	121.0000
25.2951	139.0000
25.3043	131.0000
25.3136	131.0000
25.3228	120.0000
25.3320	127.0000
25.3412	114.0000
25.3505	129.0000
25.3597	134.0000
25.3689	140.0000
25.3781	135.0000
25.3873	134.0000
25.3966	134.0000
25.4058	124.0000
25.4150	161.0000
25.4242	138.0000
25.4335	125.0000
25.4427	122.0000
25.4519	122.0000
25.4611	128.0000
25.4703	123.0000
25.4796	134.0000
25.4888	129.0000
25.4980	126.0000
25.5072	116.0000
25.5165	126.0000
25.5257	127.0000
25.5349	123.0000
25.5441	144.0000
25.5534	138.0000
25.5626	121.0000
25.5718	128.0000
25.5810	132.0000
25.5902	160.0000
25.5995	124.0000
25.6087	102.0000
25.6179	126.0000
25.6271	149.0000
25.6364	141.0000
25.6456	150.0000
25.6548	131.0000
25.6640	136.0000
25.6732	153.0000
25.6825	122.0000
25.6917	131.0000
25.7009	111.0000
25.7101	134.0000
25.7194	139.0000
25.7286	136.0000
25.7378	117.0000
25.7470	130.0000
25.7562	134.0000
25.7655	130.0000
25.7747	127.0000
25.7839	146.0000
25.7931	128.0000
25.8024	127.0000
25.8116	123.0000
25.8208	143.0000
25.8300	129.0000
25.8393	138.0000
25.8485	111.0000
25.8577	114.0000
25.8669	117.0000
25.8761	142.0000
25.8854	120.0000
25.8946	139.0000
25.9038	118.0000
25.9130	143.0000
25.9223	149.0000
25.9315	130.0000
25.9407	156.0000
25.9499	151.0000
25.9591	118.0000
25.9684	123.0000
25.9776	134.0000
25.9868	137.0000
25.9960	119.0000
26.0053	144.0000
26.0145	139.0000
26.0237	108.0000
26.0329	133.0000
26.0422	126.0000
26.0514	141.0000
26.0606	126.0000
26.0698	137.0000
26.0790	139.0000
26.0883	146.0000
26.0975	120.0000
26.1067	136.0000
26.1159	134.0000
26.1252	120.0000
26.1344	134.0000
26.1436	138.0000
26.1528	138.0000
26.1620	131.0000
26.1713	143.0000
26.1805	116.0000
26.1897	136.0000
26.1989	131.0000
26.2082	124.0000
26.2174	141.0000
26.2266	139.0000
26.2358	173.0000
26.2451	130.0000
26.2543	158.0000
26.2635	117.0000
26.2727	139.0000
26.2819	129.0000
26.2912	148.0000
26.3004	128.0000
26.3096	113.0000
26.3188	134.0000
26.3281	148.0000
26.3373	148.0000
26.3465	134.0000
26.3557	135.0000
26.3649	150.0000
26.3742	142.0000
26.3834	121.0000
26.3926	134.0000
26.4018	143.0000
26.4111	115.0000
26.4203	136.0000
26.4295	137.0000
26.4387	132.0000
26.4479	157.0000
26.4572	139.0000
26.4664	140.0000
26.4756	140.0000
26.4848	118.0000
26.4941	154.0000
26.5033	142.0000
26.5125	143.0000
26.5217	147.0000
26.5310	121.0000
26.5402	157.0000
26.5494	137.0000
26.5586	130.0000
26.5678	126.0000
26.5771	140.0000
26.5863	138.0000
26.5955	148.0000
26.6047	127.0000
26.6140	143.0000
26.6232	149.0000
26.6324	153.0000
26.6416	136.0000
26.6508	148.0000
26.6601	138.0000
26.6693	154.0000
26.6785	145.0000
26.6877	127.0000
26.6970	143.0000
26.7062	150.0000
26.7154	122.0000
26.7246	141.0000
26.7339	132.0000
26.7431	132.0000
26.7523	141.0000
26.7615	148.0000
26.7707	137.0000
26.7800	130.0000
26.7892	165.0000
26.7984	171.0000
26.8076	159.0000
26.8169	162.0000
26.8261	133.0000
26.8353	145.0000
26.8445	142.0000
26.8537	121.0000
26.8630	123.0000
26.8722	151.0000
26.8814	146.0000
26.8906	140.0000
26.8999	152.0000
26.9091	135.0000
26.9183	139.0000
26.9275	125.0000
26.9367	150.0000
26.9460	140.0000
26.9552	132.0000
26.9644	142.0000
26.9736	151.0000
26.9829	177.0000
26.9921	145.0000
27.0013	144.0000
27.0105	149.0000
27.0198	116.0000
27.0290	129.0000
27.0382	127.0000
27.0474	125.0000
27.0566	146.0000
27.0659	140.0000
27.0751	151.0000
27.0843	172.0000
27.0935	139.0000
27.1028	160.0000
27.1120	129.0000
27.1212	142.0000
27.1304	144.0000
27.1396	132.0000
27.1489	155.0000
27.1581	146.0000
27.1673	142.0000
27.1765	122.0000
27.1858	147.0000
27.1950	154.0000
27.2042	157.0000
27.2134	135.0000
27.2227	131.0000
27.2319	150.0000
27.2411	128.0000
27.2503	128.0000
27.2595	149.0000
27.2688	148.0000
27.2780	130.0000
27.2872	140.0000
27.2964	131.0000
27.3057	133.0000
27.3149	156.0000
27.3241	135.0000
27.3333	150.0000
27.3425	145.0000
27.3518	154.0000
27.3610	133.0000
27.3702	137.0000
27.3794	140.0000
27.3887	142.0000
27.3979	128.0000
27.4071	154.0000
27.4163	150.0000
27.4256	131.0000
27.4348	143.0000
27.4440	150.0000
27.4532	140.0000
27.4624	142.0000
27.4717	130.0000
27.4809	150.0000
27.4901	148.0000
27.4993	126.0000
27.5086	158.0000
27.5178	133.0000
27.5270	161.0000
27.5362	121.0000
27.5454	152.0000
27.5547	125.0000
27.5639	159.0000
27.5731	144.0000
27.5823	128.0000
27.5916	148.0000
27.6008	151.0000
27.6100	157.0000
27.6192	131.0000
27.6284	119.0000
27.6377	129.0000
27.6469	145.0000
27.6561	152.0000
27.6653	145.0000
27.6746	124.0000
27.6838	139.0000
27.6930	141.0000
27.7022	150.0000
27.7115	154.0000
27.7207	143.0000
27.7299	178.0000
27.7391	147.0000
27.7483	139.0000
27.7576	139.0000
27.7668	136.0000
27.7760	157.0000
27.7852	123.0000
27.7945	159.0000
27.8037	139.0000
27.8129	135.0000
27.8221	149.0000
27.8313	162.0000
27.8406	142.0000
27.8498	160.0000
27.8590	152.0000
27.8682	152.0000
27.8775	135.0000
27.8867	150.0000
27.8959	130.0000
27.9051	144.0000
27.9144	128.0000
27.9236	138.0000
27.9328	139.0000
27.9420	133.0000
27.9512	135.0000
27.9605	134.0000
27.9697	135.0000
27.9789	164.0000
27.9881	130.0000
27.9974	153.0000
28.0066	171.0000
28.0158	141.0000
28.0250	162.0000
28.0342	126.0000
28.0435	157.0000
28.0527	135.0000
28.0619	131.0000
28.0711	153.0000
28.0804	140.0000
28.0896	163.0000
28.0988	144.0000
28.1080	166.0000
28.1172	124.0000
28.1265	162.0000
28.1357	150.0000
28.1449	139.0000
28.1541	121.0000
28.1634	153.0000
28.1726	132.0000
28.1818	134.0000
28.1910	148.0000
28.2003	149.0000
28.2095	143.0000
28.2187	120.0000
28.2279	161.0000
28.2371	147.0000
28.2464	138.0000
28.2556	144.0000
28.2648	167.0000
28.2740	153.0000
28.2833	158.0000
28.2925	138.0000
28.3017	158.0000
28.3109	159.0000
28.3201	137.0000
28.3294	143.0000
28.3386	157.0000
28.3478	138.0000
28.3570	164.0000
28.3663	138.0000
28.3755	130.0000
28.3847	125.0000
28.3939	140.0000
28.4032	130.0000
28.4124	133.0000
28.4216	138.0000
28.4308	155.0000
28.4400	145.0000
28.4493	160.0000
28.4585	127.0000
28.4677	164.0000
28.4769	163.0000
28.4862	142.0000
28.4954	153.0000
28.5046	157.0000
28.5138	161.0000
28.5230	133.0000
28.5323	156.0000
28.5415	138.0000
28.5507	138.0000
28.5599	154.0000
28.5692	142.0000
28.5784	131.0000
28.5876	156.0000
28.5968	146.0000
28.6061	158.0000
28.6153	152.0000
28.6245	153.0000
28.6337	152.0000
28.6429	138.0000
28.6522	141.0000
28.6614	123.0000
28.6706	185.0000
28.6798	164.0000
28.6891	155.0000
28.6983	129.0000
28.7075	176.0000
28.7167	141.0000
28.7259	143.0000
28.7352	153.0000
28.7444	132.0000
28.7536	143.0000
28.7628	130.0000
28.7721	158.0000
28.7813	144.0000
28.7905	136.0000
28.7997	146.0000
28.8089	152.0000
28.8182	146.0000
28.8274	142.0000
28.8366	157.0000
28.8458	153.0000
28.8551	167.0000
28.8643	141.0000
28.8735	112.0000
28.8827	143.0000
28.8920	116.0000
28.9012	158.0000
28.9104	156.0000
28.9196	124.0000
28.9288	150.0000
28.9381	164.0000
28.9473	161.0000
28.9565	164.0000
28.9657	149.0000
28.9750	150.0000
28.9842	147.0000
28.9934	130.0000
29.0026	168.0000
29.0118	155.0000
29.0211	145.0000
29.0303	142.0000
29.0395	148.0000
29.0487	145.0000
29.0580	142.0000
29.0672	125.0000
29.0764	146.0000
29.0856	167.0000
29.0949	161.0000
29.1041	160.0000
29.1133	133.0000
29.1225	138.0000
29.1317	157.0000
29.1410	171.0000
29.1502	153.0000
29.1594	133.0000
29.1686	127.0000
29.1779	138.0000
29.1871	149.0000
29.1963	147.0000
29.2055	135.0000
29.2147	157.0000
29.2240	155.0000
29.2332	148.0000
29.2424	139.0000
29.2516	141.0000
29.2609	148.0000
29.2701	146.0000
29.2793	157.0000
29.2885	180.0000
29.2977	152.0000
29.3070	150.0000
29.3162	141.0000
29.3254	151.0000
29.3346	149.0000
29.3439	170.0000
29.3531	139.0000
29.3623	130.0000
29.3715	149.0000
29.3808	158.0000
29.3900	154.0000
29.3992	130.0000
29.4084	158.0000
29.4176	136.0000
29.4269	156.0000
29.4361	156.0000
29.4453	164.0000
29.4545	132.0000
29.4638	144.0000
29.4730	150.0000
29.4822	140.0000
29.4914	152.0000
29.5006	146.0000
29.5099	146.0000
29.5191	142.0000
29.5283	155.0000
29.5375	167.0000
29.5468	152.0000
29.5560	152.0000
29.5652	152.0000
29.5744	148.0000
29.5837	140.0000
29.5929	156.0000
29.6021	131.0000
29.6113	130.0000
29.6205	148.0000
29.6298	135.0000
29.6390	168.0000
29.6482	164.0000
29.6574	157.0000
29.6667	143.0000
29.6759	161.0000
29.6851	137.0000
29.6943	137.0000
29.7035	140.0000
29.7128	139.0000
29.7220	165.0000
29.7312	145.0000
29.7404	169.0000
29.7497	157.0000
29.7589	117.0000
29.7681	131.0000
29.7773	146.0000
29.7866	135.0000
29.7958	151.0000
29.8050	133.0000
29.8142	144.0000
29.8234	161.0000
29.8327	166.0000
29.8419	131.0000
29.8511	131.0000
29.8603	145.0000
29.8696	164.0000
29.8788	143.0000
29.8880	145.0000
29.8972	165.0000
29.9064	163.0000
29.9157	169.0000
29.9249	136.0000
29.9341	150.0000
29.9433	160.0000
29.9526	132.0000
29.9618	165.0000
29.9710	153.0000
29.9802	136.0000
29.9894	143.0000
29.9987	156.0000
30.0079	145.0000
30.0171	153.0000
30.0263	150.0000
30.0356	155.0000
30.0448	157.0000
30.0540	144.0000
30.0632	142.0000
30.0725	141.0000
30.0817	168.0000
30.0909	154.0000
30.1001	131.0000
30.1093	148.0000
30.1186	129.0000
30.1278	165.0000
30.1370	158.0000
30.1462	141.0000
30.1555	147.0000
30.1647	150.0000
30.1739	142.0000
30.1831	160.0000
30.1923	131.0000
30.2016	161.0000
30.2108	138.0000
30.2200	135.0000
30.2292	125.0000
30.2385	139.0000
30.2477	144.0000
30.2569	163.0000
30.2661	142.0000
30.2754	151.0000
30.2846	150.0000
30.2938	144.0000
30.3030	149.0000
30.3122	150.0000
30.3215	142.0000
30.3307	146.0000
30.3399	158.0000
30.3491	149.0000
30.3584	155.0000
30.3676	145.0000
30.3768	150.0000
30.3860	145.0000
30.3952	135.0000
30.4045	140.0000
30.4137	160.0000
30.4229	141.0000
30.4321	130.0000
30.4414	141.0000
30.4506	142.0000
30.4598	134.0000
30.4690	154.0000
30.4782	158.0000
30.4875	129.0000
30.4967	155.0000
30.5059	127.0000
30.5151	175.0000
30.5244	150.0000
30.5336	147.0000
30.5428	153.0000
30.5520	136.0000
30.5613	148.0000
30.5705	147.0000
30.5797	149.0000
30.5889	138.0000
30.5981	143.0000
30.6074	133.0000
30.6166	156.0000
30.6258	149.0000
30.6350	137.0000
30.6443	164.0000
30.6535	157.0000
30.6627	146.0000
30.6719	153.0000
30.6811	157.0000
30.6904	136.0000
30.6996	170.0000
30.7088	157.0000
30.7180	133.0000
30.7273	126.0000
30.7365	134.0000
30.7457	145.0000
30.7549	128.0000
30.7642	135.0000
30.7734	165.0000
30.7826	140.0000
30.7918	143.0000
30.8010	113.0000
30.8103	162.0000
30.8195	142.0000
30.8287	150.0000
30.8379	135.0000
30.8472	142.0000
30.8564	159.0000
30.8656	160.0000
30.8748	143.0000
30.8840	142.0000
30.8933	162.0000
30.9025	143.0000
30.9117	156.0000
30.9209	163.0000
30.9302	147.0000
30.9394	147.0000
30.9486	139.0000
30.9578	153.0000
30.9671	140.0000
30.9763	129.0000
30.9855	130.0000
30.9947	140.0000
31.0039	164.0000
31.0132	170.0000
31.0224	151.0000
31.0316	141.0000
31.0408	123.0000
31.0501	145.0000
31.0593	146.0000
31.0685	134.0000
31.0777	153.0000
31.0869	125.0000
31.0962	139.0000
31.1054	144.0000
31.1146	160.0000
31.1238	157.0000
31.1331	143.0000
31.1423	119.0000
31.1515	148.0000
31.1607	140.0000
31.1699	148.0000
31.1792	144.0000
31.1884	142.0000
31.1976	138.0000
31.2068	133.0000
31.2161	159.0000
31.2253	151.0000
31.2345	152.0000
31.2437	135.0000
31.2530	144.0000
31.2622	132.0000
31.2714	142.0000
31.2806	169.0000
31.2898	141.0000
31.2991	140.0000
31.3083	123.0000
31.3175	163.0000
31.3267	138.0000
31.3360	158.0000
31.3452	158.0000
31.3544	156.0000
31.3636	149.0000
31.3728	135.0000
31.3821	155.0000
31.3913	149.0000
31.4005	130.0000
31.4097	140.0000
31.4190	111.0000
31.4282	144.0000
31.4374	145.0000
31.4466	137.0000
31.4559	133.0000
31.4651	134.0000
31.4743	145.0000
31.4835	134.0000
31.4927	166.0000
31.5020	125.0000
31.5112	133.0000
31.5204	123.0000
31.5296	136.0000
31.5389	127.0000
31.5481	147.0000
31.5573	150.0000
31.5665	149.0000
31.5757	147.0000
31.5850	138.0000
31.5942	133.0000
31.6034	139.0000
31.6126	143.0000
31.6219	139.0000
31.6311	133.0000
31.6403	147.0000
31.6495	160.0000
31.6587	133.0000
31.6680	145.0000
31.6772	149.0000
31.6864	133.0000
31.6956	157.0000
31.7049	192.0000
31.7141	140.0000
31.7233	137.0000
31.7325	158.0000
31.7418	137.0000
31.7510	151.0000
31.7602	147.0000
31.7694	157.0000
31.7786	138.0000
31.7879	162.0000
31.7971	129.0000
31.8063	147.0000
31.8155	132.0000
31.8248	147.0000
31.8340	143.0000
31.8432	142.0000
31.8524	113.0000
31.8616	164.0000
31.8709	142.0000
31.8801	121.0000
31.8893	145.0000
31.8985	140.0000
31.9078	144.0000
31.9170	133.0000
31.9262	142.0000
31.9354	147.0000
31.9447	138.0000
31.9539	141.0000
31.9631	124.0000
31.9723	147.0000
31.9815	171.0000
31.9908	140.0000
32.0000	139.0000
32.0092	139.0000
32.0184	137.0000
32.0277	149.0000
32.0369	150.0000
32.0461	148.0000
32.0553	152.0000
32.0645	151.0000
32.0738	150.0000
32.0830	149.0000
32.0922	137.0000
32.1014	144.0000
32.1107	125.0000
32.1199	160.0000
32.1291	136.0000
32.1383	147.0000
32.1476	126.0000
32.1568	170.0000
32.1660	137.0000
32.1752	137.0000
32.1844	160.0000
32.1937	122.0000
32.2029	139.0000
32.2121	116.0000
32.2213	143.0000
32.2306	132.0000
32.2398	147.0000
32.2490	142.0000
32.2582	165.0000
32.2674	171.0000
32.2767	152.0000
32.2859	154.0000
32.2951	131.0000
32.3043	135.0000
32.3136	146.0000
32.3228	149.0000
32.3320	145.0000
32.3412	153.0000
32.3504	149.0000
32.3597	143.0000
32.3689	146.0000
32.3781	146.0000
32.3873	128.0000
32.3966	150.0000
32.4058	142.0000
32.4150	161.0000
32.4242	140.0000
32.4335	171.0000
32.4427	160.0000
32.4519	154.0000
32.4611	139.0000
32.4703	132.0000
32.4796	135.0000
32.4888	135.0000
32.4980	136.0000
32.5072	168.0000
32.5165	129.0000
32.5257	130.0000
32.5349	150.0000
32.5441	152.0000
32.5533	144.0000
32.5626	146.0000
32.5718	155.0000
32.5810	137.0000
32.5902	141.0000
32.5995	126.0000
32.6087	153.0000
32.6179	142.0000
32.6271	148.0000
32.6364	150.0000
32.6456	161.0000
32.6548	151.0000
32.6640	146.0000
32.6732	124.0000
32.6825	148.0000
32.6917	142.0000
32.7009	150.0000
32.7101	168.0000
32.7194	157.0000
32.7286	141.0000
32.7378	162.0000
32.7470	129.0000
32.7562	155.0000
32.7655	132.0000
32.7747	146.0000
32.7839	177.0000
32.7931	127.0000
32.8024	139.0000
32.8116	137.0000
32.8208	124.0000
32.8300	156.0000
32.8392	135.0000
32.8485	148.0000
32.8577	150.0000
32.8669	144.0000
32.8761	141.0000
32.8854	157.0000
32.8946	152.0000
32.9038	155.0000
32.9130	143.0000
32.9223	159.0000
32.9315	129.0000
32.9407	145.0000
32.9499	131.0000
32.9591	166.0000
32.9684	130.0000
32.9776	141.0000
32.9868	146.0000
32.9960	149.0000
33.0053	155.0000
33.0145	129.0000
33.0237	159.0000
33.0329	126.0000
33.0421	150.0000
33.0514	148.0000
33.0606	155.0000
33.0698	161.0000
33.0790	143.0000
33.0883	140.0000
33.0975	147.0000
33.1067	145.0000
33.1159	151.0000
33.1252	148.0000
33.1344	130.0000
33.1436	141.0000
33.1528	131.0000
33.1620	135.0000
33.1713	141.0000
33.1805	158.0000
33.1897	146.0000
33.1989	151.0000
33.2082	121.0000
33.2174	141.0000
33.2266	150.0000
33.2358	144.0000
33.2450	125.0000
33.2543	159.0000
33.2635	162.0000
33.2727	136.0000
33.2819	155.0000
33.2912	160.0000
33.3004	131.0000
33.3096	149.0000
33.3188	143.0000
33.3281	144.0000
33.3373	134.0000
33.3465	169.0000
33.3557	117.0000
33.3649	151.0000
33.3742	141.0000
33.3834	149.0000
33.3926	154.0000
33.4018	125.0000
33.4111	138.0000
33.4203	161.0000
33.4295	141.0000
33.4387	157.0000
33.4479	133.0000
33.4572	159.0000
33.4664	139.0000
33.4756	138.0000
33.4848	139.0000
33.4941	148.0000
33.5033	145.0000
33.5125	132.0000
33.5217	152.0000
33.5309	141.0000
33.5402	137.0000
33.5494	154.0000
33.5586	138.0000
33.5678	133.0000
33.5771	138.0000
33.5863	136.0000
33.5955	130.0000
33.6047	150.0000
33.6140	150.0000
33.6232	160.0000
33.6324	166.0000
33.6416	144.0000
33.6508	142.0000
33.6601	137.0000
33.6693	131.0000
33.6785	125.0000
33.6877	156.0000
33.6970	111.0000
33.7062	149.0000
33.7154	143.0000
33.7246	155.0000
33.7338	145.0000
33.7431	156.0000
33.7523	173.0000
33.7615	162.0000
33.7707	173.0000
33.7800	119.0000
33.7892	122.0000
33.7984	133.0000
33.8076	140.0000
33.8169	123.0000
33.8261	138.0000
33.8353	148.0000
33.8445	154.0000
33.8537	160.0000
33.8630	145.0000
33.8722	137.0000
33.8814	154.0000
33.8906	153.0000
33.8999	135.0000
33.9091	129.0000
33.9183	148.0000
33.9275	142.0000
33.9367	153.0000
33.9460	155.0000
33.9552	171.0000
33.9644	148.0000
33.9736	148.0000
33.9829	140.0000
33.9921	172.0000
34.0013	134.0000
34.0105	145.0000
34.0197	150.0000
34.0290	145.0000
34.0382	148.0000
34.0474	143.0000
34.0566	157.0000
34.0659	125.0000
34.0751	156.0000
34.0843	143.0000
34.0935	122.0000
34.1028	144.0000
34.1120	140.0000
34.1212	138.0000
34.1304	130.0000
34.1396	141.0000
34.1489	139.0000
34.1581	145.0000
34.1673	142.0000
34.1765	138.0000
34.1858	119.0000
34.1950	141.0000
34.2042	152.0000
34.2134	123.0000
34.2226	156.0000
34.2319	151.0000
34.2411	151.0000
34.2503	139.0000
34.2595	147.0000
34.2688	154.0000
34.2780	142.0000
34.2872	139.0000
34.2964	129.0000
34.3057	125.0000
34.3149	137.0000
34.3241	140.0000
34.3333	129.0000
34.3425	137.0000
34.3518	157.0000
34.3610	151.0000
34.3702	156.0000
34.3794	146.0000
34.3887	134.0000
34.3979	125.0000
34.4071	137.0000
34.4163	122.0000
34.4255	146.0000
34.4348	146.0000
34.4440	139.0000
34.4532	149.0000
34.4624	140.0000
34.4717	145.0000
34.4809	131.0000
34.4901	161.0000
34.4993	113.0000
34.5086	122.0000
34.5178	159.0000
34.5270	145.0000
34.5362	126.0000
34.5454	144.0000
34.5547	126.0000
34.5639	141.0000
34.5731	131.0000
34.5823	150.0000
34.5916	128.0000
34.6008	118.0000
34.6100	123.0000
34.6192	135.0000
34.6284	153.0000
34.6377	145.0000
34.6469	146.0000
34.6561	134.0000
34.6653	147.0000
34.6746	130.0000
34.6838	128.0000
34.6930	128.0000
34.7022	148.0000
34.7114	126.0000
34.7207	117.0000
34.7299	133.0000
34.7391	139.0000
34.7483	126.0000
34.7576	135.0000
34.7668	130.0000
34.7760	143.0000
34.7852	122.0000
34.7945	139.0000
34.8037	133.0000
34.8129	149.0000
34.8221	160.0000
34.8313	138.0000
34.8406	144.0000
34.8498	133.0000
34.8590	155.0000
34.8682	126.0000
34.8775	132.0000
34.8867	147.0000
34.8959	130.0000
34.9051	114.0000
34.9143	132.0000
34.9236	124.0000
34.9328	114.0000
34.9420	127.0000
34.9512	134.0000
34.9605	129.0000
34.9697	143.0000
34.9789	128.0000
34.9881	112.0000
34.9974	125.0000
35.0066	126.0000
35.0158	132.0000
35.0250	129.0000
35.0342	139.0000
35.0435	136.0000
35.0527	123.0000
35.0619	122.0000
35.0711	121.0000
35.0804	125.0000
35.0896	141.0000
35.0988	117.0000
35.1080	118.0000
35.1172	131.0000
35.1265	117.0000
35.1357	125.0000
35.1449	145.0000
35.1541	131.0000
35.1634	115.0000
35.1726	119.0000
35.1818	116.0000
35.1910	126.0000
35.2002	143.0000
35.2095	148.0000
35.2187	114.0000
35.2279	118.0000
35.2371	120.0000
35.2464	136.0000
35.2556	118.0000
35.2648	122.0000
35.2740	120.0000
35.2833	107.0000
35.2925	141.0000
35.3017	121.0000
35.3109	146.0000
35.3201	124.0000
35.3294	102.0000
35.3386	116.0000
35.3478	125.0000
35.3570	115.0000
35.3663	135.0000
35.3755	124.0000
35.3847	135.0000
35.3939	113.0000
35.4031	132.0000
35.4124	124.0000
35.4216	109.0000
35.4308	117.0000
35.4400	128.0000
35.4493	113.0000
35.4585	126.0000
35.4677	113.0000
35.4769	113.0000
35.4862	106.0000
35.4954	106.0000
35.5046	121.0000
35.5138	118.0000
35.5230	135.0000
35.5323	112.0000
35.5415	118.0000
35.5507	121.0000
35.5599	115.0000
35.5692	136.0000
35.5784	123.0000
35.5876	106.0000
35.5968	149.0000
35.6060	109.0000
35.6153	102.0000
35.6245	112.0000
35.6337	117.0000
35.6429	118.0000
35.6522	135.0000
35.6614	113.0000
35.6706	111.0000
35.6798	117.0000
35.6891	119.0000
35.6983	116.0000
35.7075	117.0000
35.7167	122.0000
35.7259	93.0000
35.7352	116.0000
35.7444	90.0000
35.7536	114.0000
35.7628	105.0000
35.7721	128.0000
35.7813	122.0000
35.7905	110.0000
35.7997	108.0000
35.8089	119.0000
35.8182	110.0000
35.8274	107.0000
35.8366	101.0000
35.8458	124.0000
35.8551	116.0000
35.8643	117.0000
35.8735	108.0000
35.8827	108.0000
35.8919	109.0000
35.9012	111.0000
35.9104	105.0000
35.9196	124.0000
35.9288	106.0000
35.9381	117.0000
35.9473	96.0000
35.9565	117.0000
35.9657	96.0000
35.9750	101.0000
35.9842	115.0000
35.9934	108.0000
36.0026	104.0000
36.0118	113.0000
36.0211	105.0000
36.0303	100.0000
36.0395	114.0000
36.0487	102.0000
36.0580	102.0000
36.0672	105.0000
36.0764	113.0000
36.0856	102.0000
36.0948	112.0000
36.1041	108.0000
36.1133	95.0000
36.1225	110.0000
36.1317	93.0000
36.1410	107.0000
36.1502	112.0000
36.1594	112.0000
36.1686	113.0000
36.1779	109.0000
36.1871	101.0000
36.1963	125.0000
36.2055	107.0000
36.2147	118.0000
36.2240	112.0000
36.2332	125.0000
36.2424	107.0000
36.2516	108.0000
36.2609	98.0000
36.2701	107.0000
36.2793	88.0000
36.2885	105.0000
36.2977	102.0000
36.3070	112.0000
36.3162	90.0000
36.3254	102.0000
36.3346	122.0000
36.3439	99.0000
36.3531	86.0000
36.3623	98.0000
36.3715	93.0000
36.3807	95.0000
36.3900	90.0000
36.3992	89.0000
36.4084	104.0000
36.4176	106.0000
36.4269	108.0000
36.4361	103.0000
36.4453	115.0000
36.4545	90.0000
36.4638	108.0000
36.4730	95.0000
36.4822	89.0000
36.4914	94.0000
36.5006	88.0000
36.5099	88.0000
36.5191	120.0000
36.5283	97.0000
36.5375	112.0000
36.5468	104.0000
36.5560	113.0000
36.5652	80.0000
36.5744	100.0000
36.5836	110.0000
36.5929	106.0000
36.6021	94.0000
36.6113	99.0000
36.6205	91.0000
36.6298	87.0000
36.6390	74.0000
36.6482	92.0000
36.6574	116.0000
36.6667	81.0000
36.6759	95.0000
36.6851	108.0000
36.6943	105.0000
36.7035	113.0000
36.7128	97.0000
36.7220	84.0000
36.7312	91.0000
36.7404	97.0000
36.7497	103.0000
36.7589	93.0000
36.7681	94.0000
36.7773	88.0000
36.7865	94.0000
36.7958	81.0000
36.8050	103.0000
36.8142	85.0000
36.8234	102.0000
36.8327	98.0000
36.8419	98.0000
36.8511	91.0000
36.8603	86.0000
36.8696	81.0000
36.8788	94.0000
36.8880	88.0000
36.8972	95.0000
36.9064	89.0000
36.9157	73.0000
36.9249	90.0000
36.9341	83.0000
36.9433	105.0000
36.9526	102.0000
36.9618	108.0000
36.9710	102.0000
36.9802	88.0000
36.9894	102.0000
36.9987	80.0000
37.0079	96.0000
37.0171	77.0000
37.0263	99.0000
37.0356	90.0000
37.0448	87.0000
37.0540	97.0000
37.0632	92.0000
37.0724	83.0000
37.0817	120.0000
37.0909	99.0000
37.1001	104.0000
37.1093	101.0000
37.1186	92.0000
37.1278	98.0000
37.1370	95.0000
37.1462	97.0000
37.1555	96.0000
37.1647	93.0000
37.1739	76.0000
37.1831	89.0000
37.1923	83.0000
37.2016	98.0000
37.2108	89.0000
37.2200	90.0000
37.2292	86.0000
37.2385	83.0000
37.2477	98.0000
37.2569	80.0000
37.2661	105.0000
37.2753	100.0000
37.2846	111.0000
37.2938	134.0000
37.3030	132.0000
37.3122	199.0000
37.3215	282.0000
37.3307	336.0000
37.3399	427.0000
37.3491	416.0000
37.3584	373.0000
37.3676	290.0000
37.3768	199.0000
37.3860	142.0000
37.3952	122.0000
37.4045	124.0000
37.4137	103.0000
37.4229	97.0000
37.4321	90.0000
37.4414	105.0000
37.4506	111.0000
37.4598	95.0000
37.4690	91.0000
37.4782	89.0000
37.4875	92.0000
37.4967	102.0000
37.5059	97.0000
37.5151	107.0000
37.5244	120.0000
37.5336	105.0000
37.5428	138.0000
37.5520	160.0000
37.5612	204.0000
37.5705	228.0000
37.5797	232.0000
37.5889	227.0000
37.5981	156.0000
37.6074	144.0000
37.6166	99.0000
37.6258	89.0000
37.6350	90.0000
37.6443	98.0000
37.6535	85.0000
37.6627	78.0000
37.6719	84.0000
37.6811	73.0000
37.6904	71.0000
37.6996	86.0000
37.7088	93.0000
37.7180	93.0000
37.7273	82.0000
37.7365	83.0000
37.7457	66.0000
37.7549	66.0000
37.7641	83.0000
37.7734	86.0000
37.7826	86.0000
37.7918	76.0000
37.8010	70.0000
37.8103	103.0000
37.8195	101.0000
37.8287	101.0000
37.8379	82.0000
37.8472	68.0000
37.8564	78.0000
37.8656	88.0000
37.8748	85.0000
37.8840	95.0000
37.8933	80.0000
37.9025	74.0000
37.9117	82.0000
37.9209	82.0000
37.9302	88.0000
37.9394	82.0000
37.9486	75.0000
37.9578	92.0000
37.9670	77.0000
37.9763	82.0000
37.9855	79.0000
37.9947	86.0000
38.0039	78.0000
38.0132	95.0000
38.0224	64.0000
38.0316	80.0000
38.0408	92.0000
38.0501	80.0000
38.0593	94.0000
38.0685	84.0000
38.0777	72.0000
38.0869	73.0000
38.0962	77.0000
38.1054	80.0000
38.1146	80.0000
38.1238	75.0000
38.1331	84.0000
38.1423	81.0000
38.1515	85.0000
38.1607	68.0000
38.1699	66.0000
38.1792	77.0000
38.1884	84.0000
38.1976	73.0000
38.2068	62.0000
38.2161	89.0000
38.2253	102.0000
38.2345	63.0000
38.2437	98.0000
38.2529	90.0000
38.2622	76.0000
38.2714	87.0000
38.2806	64.0000
38.2898	85.0000
38.2991	74.0000
38.3083	83.0000
38.3175	71.0000
38.3267	99.0000
38.3360	62.0000
38.3452	60.0000
38.3544	88.0000
38.3636	65.0000
38.3728	90.0000
38.3821	92.0000
38.3913	77.0000
38.4005	84.0000
38.4097	73.0000
38.4190	78.0000
38.4282	83.0000
38.4374	82.0000
38.4466	76.0000
38.4558	62.0000
38.4651	72.0000
38.4743	83.0000
38.4835	74.0000
38.4927	73.0000
38.5020	69.0000
38.5112	63.0000
38.5204	74.0000
38.5296	82.0000
38.5389	85.0000
38.5481	61.0000
38.5573	86.0000
38.5665	79.0000
38.5757	60.0000
38.5850	77.0000
38.5942	71.0000
38.6034	51.0000
38.6126	82.0000
38.6219	91.0000
38.6311	64.0000
38.6403	80.0000
38.6495	79.0000
38.6587	71.0000
38.6680	87.0000
38.6772	77.0000
38.6864	77.0000
38.6956	68.0000
38.7049	73.0000
38.7141	70.0000
38.7233	75.0000
38.7325	74.0000
38.7417	79.0000
38.7510	66.0000
38.7602	87.0000
38.7694	79.0000
38.7786	73.0000
38.7879	77.0000
38.7971	80.0000
38.8063	79.0000
38.8155	81.0000
38.8248	97.0000
38.8340	65.0000
38.8432	76.0000
38.8524	71.0000
38.8616	81.0000
38.8709	57.0000
38.8801	61.0000
38.8893	72.0000
38.8985	72.0000
38.9078	77.0000
38.9170	69.0000
38.9262	79.0000
38.9354	84.0000
38.9446	66.0000
38.9539	79.0000
38.9631	93.0000
38.9723	70.0000
38.9815	75.0000
38.9908	82.0000
39.0000	81.0000
39.0092	75.0000
39.0184	73.0000
39.0277	82.0000
39.0369	64.0000
39.0461	82.0000
39.0553	70.0000
39.0645	66.0000
39.0738	88.0000
39.0830	87.0000
39.0922	80.0000
39.1014	77.0000
39.1107	70.0000
39.1199	92.0000
39.1291	68.0000
39.1383	69.0000
39.1475	77.0000
39.1568	76.0000
39.1660	84.0000
39.1752	63.0000
39.1844	78.0000
39.1937	75.0000
39.2029	85.0000
39.2121	68.0000
39.2213	89.0000
39.2306	70.0000
39.2398	88.0000
39.2490	70.0000
39.2582	75.0000
39.2674	90.0000
39.2767	73.0000
39.2859	65.0000
39.2951	67.0000
39.3043	62.0000
39.3136	86.0000
39.3228	71.0000
39.3320	62.0000
39.3412	72.0000
39.3504	71.0000
39.3597	75.0000
39.3689	86.0000
39.3781	80.0000
39.3873	70.0000
39.3966	64.0000
39.4058	64.0000
39.4150	65.0000
39.4242	74.0000
39.4334	78.0000
39.4427	72.0000
39.4519	74.0000
39.4611	67.0000
39.4703	82.0000
39.4796	82.0000
39.4888	76.0000
39.4980	72.0000
39.5072	69.0000
39.5165	89.0000
39.5257	87.0000
39.5349	71.0000
39.5441	67.0000
39.5533	94.0000
39.5626	88.0000
39.5718	62.0000
39.5810	73.0000
39.5902	72.0000
39.5995	68.0000
39.6087	70.0000
39.6179	69.0000
39.6271	73.0000
39.6363	82.0000
39.6456	67.0000
39.6548	67.0000
39.6640	78.0000
39.6732	69.0000
39.6825	60.0000
39.6917	93.0000
39.7009	80.0000
39.7101	66.0000
39.7194	59.0000
39.7286	92.0000
39.7378	71.0000
39.7470	76.0000
39.7562	62.0000
39.7655	67.0000
39.7747	83.0000
39.7839	74.0000
39.7931	77.0000
39.8024	92.0000
39.8116	73.0000
39.8208	78.0000
39.8300	73.0000
39.8392	91.0000
39.8485	55.0000
39.8577	67.0000
39.8669	60.0000
39.8761	67.0000
39.8854	66.0000
39.8946	53.0000
39.9038	90.0000
39.9130	74.0000
39.9222	56.0000
39.9315	70.0000
39.9407	69.0000
39.9499	62.0000
39.9591	82.0000
39.9684	70.0000
39.9776	73.0000
39.9868	70.0000
39.9960	72.0000
40.0053	59.0000
40.0145	81.0000
40.0237	68.0000
40.0329	84.0000
40.0421	78.0000
40.0514	70.0000
40.0606	88.0000
40.0698	72.0000
40.0790	60.0000
40.0883	77.0000
40.0975	90.0000
40.1067	74.0000
40.1159	69.0000
40.1251	70.0000
40.1344	76.0000
40.1436	71.0000
40.1528	80.0000
40.1620	77.0000
40.1713	61.0000
40.1805	80.0000
40.1897	69.0000
40.1989	70.0000
40.2082	76.0000
40.2174	58.0000
40.2266	75.0000
40.2358	64.0000
40.2450	59.0000
40.2543	75.0000
40.2635	78.0000
40.2727	82.0000
40.2819	81.0000
40.2912	78.0000
40.3004	81.0000
40.3096	65.0000
40.3188	78.0000
40.3280	69.0000
40.3373	86.0000
40.3465	74.0000
40.3557	75.0000
40.3649	69.0000
40.3742	71.0000
40.3834	90.0000
40.3926	74.0000
40.4018	69.0000
40.4111	93.0000
40.4203	71.0000
40.4295	77.0000
40.4387	88.0000
40.4479	82.0000
40.4572	88.0000
40.4664	81.0000
40.4756	79.0000
40.4848	78.0000
40.4941	61.0000
40.5033	80.0000
40.5125	83.0000
40.5217	72.0000
40.5309	63.0000
40.5402	65.0000
40.5494	74.0000
40.5586	74.0000
40.5678	71.0000
40.5771	61.0000
40.5863	72.0000
40.5955	79.0000
40.6047	80.0000
40.6139	66.0000
40.6232	66.0000
40.6324	61.0000
40.6416	77.0000
40.6508	81.0000
40.6601	65.0000
40.6693	85.0000
40.6785	62.0000
40.6877	67.0000
40.6970	79.0000
40.7062	70.0000
40.7154	62.0000
40.7246	90.0000
40.7338	86.0000
40.7431	77.0000
40.7523	59.0000
40.7615	76.0000
40.7707	74.0000
40.7800	73.0000
40.7892	74.0000
40.7984	72.0000
40.8076	64.0000
40.8168	63.0000
40.8261	69.0000
40.8353	77.0000
40.8445	78.0000
40.8537	86.0000
40.8630	69.0000
40.8722	73.0000
40.8814	70.0000
40.8906	64.0000
40.8999	69.0000
40.9091	84.0000
40.9183	74.0000
40.9275	52.0000
40.9367	73.0000
40.9460	77.0000
40.9552	73.0000
40.9644	69.0000
40.9736	74.0000
40.9829	70.0000
40.9921	73.0000
41.0013	71.0000
41.0105	75.0000
41.0197	67.0000
41.0290	57.0000
41.0382	65.0000
41.0474	69.0000
41.0566	69.0000
41.0659	70.0000
41.0751	72.0000
41.0843	75.0000
41.0935	62.0000
41.1027	64.0000
41.1120	72.0000
41.1212	69.0000
41.1304	72.0000
41.1396	65.0000
41.1489	83.0000
41.1581	81.0000
41.1673	74.0000
41.1765	71.0000
41.1858	81.0000
41.1950	78.0000
41.2042	69.0000
41.2134	84.0000
41.2226	70.0000
41.2319	86.0000
41.2411	62.0000
41.2503	78.0000
41.2595	66.0000
41.2688	69.0000
41.2780	74.0000
41.2872	68.0000
41.2964	60.0000
41.3056	61.0000
41.3149	72.0000
41.3241	73.0000
41.3333	63.0000
41.3425	58.0000
41.3518	85.0000
41.3610	75.0000
41.3702	77.0000
41.3794	65.0000
41.3887	67.0000
41.3979	88.0000
41.4071	79.0000
41.4163	71.0000
41.4255	85.0000
41.4348	82.0000
41.4440	78.0000
41.4532	77.0000
41.4624	66.0000
41.4717	79.0000
41.4809	66.0000
41.4901	78.0000
41.4993	70.0000
41.5085	77.0000
41.5178	71.0000
41.5270	89.0000
41.5362	66.0000
41.5454	62.0000
41.5547	71.0000
41.5639	80.0000
41.5731	78.0000
41.5823	58.0000
41.5915	85.0000
41.6008	70.0000
41.6100	83.0000
41.6192	77.0000
41.6284	78.0000
41.6377	79.0000
41.6469	74.0000
41.6561	78.0000
41.6653	68.0000
41.6746	53.0000
41.6838	70.0000
41.6930	71.0000
41.7022	85.0000
41.7114	68.0000
41.7207	73.0000
41.7299	74.0000
41.7391	83.0000
41.7483	61.0000
41.7576	81.0000
41.7668	76.0000
41.7760	71.0000
41.7852	78.0000
41.7944	64.0000
41.8037	72.0000
41.8129	61.0000
41.8221	76.0000
41.8313	63.0000
41.8406	86.0000
41.8498	70.0000
41.8590	89.0000
41.8682	66.0000
41.8775	83.0000
41.8867	66.0000
41.8959	65.0000
41.9051	73.0000
41.9143	71.0000
41.9236	76.0000
41.9328	75.0000
41.9420	80.0000
41.9512	65.0000
41.9605	75.0000
41.9697	68.0000
41.9789	80.0000
41.9881	60.0000
41.9973	77.0000
42.0066	65.0000
42.0158	79.0000
42.0250	81.0000
42.0342	60.0000
42.0435	68.0000
42.0527	66.0000
42.0619	78.0000
42.0711	78.0000
42.0804	67.0000
42.0896	75.0000
42.0988	89.0000
42.1080	62.0000
42.1172	68.0000
42.1265	68.0000
42.1357	71.0000
42.1449	68.0000
42.1541	92.0000
42.1634	66.0000
42.1726	82.0000
42.1818	68.0000
42.1910	61.0000
42.2002	62.0000
42.2095	76.0000
42.2187	74.0000
42.2279	71.0000
42.2371	65.0000
42.2464	68.0000
42.2556	83.0000
42.2648	83.0000
42.2740	60.0000
42.2832	73.0000
42.2925	65.0000
42.3017	70.0000
42.3109	75.0000
42.3201	74.0000
42.3294	73.0000
42.3386	73.0000
42.3478	89.0000
42.3570	76.0000
42.3663	83.0000
42.3755	73.0000
42.3847	75.0000
42.3939	64.0000
42.4031	63.0000
42.4124	60.0000
42.4216	69.0000
42.4308	75.0000
42.4400	61.0000
42.4493	62.0000
42.4585	58.0000
42.4677	55.0000
42.4769	48.0000
42.4861	55.0000
42.4954	94.0000
42.5046	63.0000
42.5138	48.0000
42.5230	69.0000
42.5323	68.0000
42.5415	75.0000
42.5507	77.0000
42.5599	79.0000
42.5692	80.0000
42.5784	71.0000
42.5876	67.0000
42.5968	75.0000
42.6060	68.0000
42.6153	80.0000
42.6245	79.0000
42.6337	58.0000
42.6429	71.0000
42.6522	65.0000
42.6614	78.0000
42.6706	71.0000
42.6798	70.0000
42.6890	67.0000
42.6983	76.0000
42.7075	68.0000
42.7167	76.0000
42.7259	61.0000
42.7352	68.0000
42.7444	71.0000
42.7536	84.0000
42.7628	79.0000
42.7720	78.0000
42.7813	78.0000
42.7905	76.0000
42.7997	64.0000
42.8089	69.0000
42.8182	71.0000
42.8274	64.0000
42.8366	89.0000
42.8458	83.0000
42.8551	69.0000
42.8643	75.0000
42.8735	85.0000
42.8827	73.0000
42.8919	90.0000
42.9012	84.0000
42.9104	81.0000
42.9196	64.0000
42.9288	69.0000
42.9381	78.0000
42.9473	67.0000
42.9565	62.0000
42.9657	68.0000
42.9749	61.0000
42.9842	71.0000
42.9934	74.0000
43.0026	79.0000
43.0118	60.0000
43.0211	76.0000
43.0303	58.0000
43.0395	76.0000
43.0487	75.0000
43.0580	69.0000
43.0672	75.0000
43.0764	81.0000
43.0856	54.0000
43.0948	58.0000
43.1041	79.0000
43.1133	68.0000
43.1225	66.0000
43.1317	64.0000
43.1410	56.0000
43.1502	75.0000
43.1594	67.0000
43.1686	90.0000
43.1778	73.0000
43.1871	54.0000
43.1963	60.0000
43.2055	81.0000
43.2147	89.0000
43.2240	68.0000
43.2332	68.0000
43.2424	87.0000
43.2516	76.0000
43.2609	75.0000
43.2701	56.0000
43.2793	87.0000
43.2885	70.0000
43.2977	84.0000
43.3070	75.0000
43.3162	86.0000
43.3254	92.0000
43.3346	91.0000
43.3439	94.0000
43.3531	146.0000
43.3623	164.0000
43.3715	208.0000
43.3807	259.0000
43.3900	278.0000
43.3992	225.0000
43.4084	219.0000
43.4176	181.0000
43.4269	118.0000
43.4361	109.0000
43.4453	96.0000
43.4545	96.0000
43.4637	79.0000
43.4730	69.0000
43.4822	91.0000
43.4914	67.0000
43.5006	54.0000
43.5099	77.0000
43.5191	84.0000
43.5283	81.0000
43.5375	78.0000
43.5468	71.0000
43.5560	77.0000
43.5652	82.0000
43.5744	69.0000
43.5836	64.0000
43.5929	71.0000
43.6021	88.0000
43.6113	97.0000
43.6205	96.0000
43.6298	131.0000
43.6390	131.0000
43.6482	142.0000
43.6574	155.0000
43.6666	142.0000
43.6759	151.0000
43.6851	143.0000
43.6943	120.0000
43.7035	116.0000
43.7128	83.0000
43.7220	64.0000
43.7312	68.0000
43.7404	79.0000
43.7497	74.0000
43.7589	88.0000
43.7681	78.0000
43.7773	85.0000
43.7865	68.0000
43.7958	71.0000
43.8050	68.0000
43.8142	68.0000
43.8234	80.0000
43.8327	74.0000
43.8419	85.0000
43.8511	84.0000
43.8603	68.0000
43.8695	67.0000
43.8788	71.0000
43.8880	81.0000
43.8972	79.0000
43.9064	67.0000
43.9157	74.0000
43.9249	67.0000
43.9341	72.0000
43.9433	71.0000
43.9525	77.0000
43.9618	80.0000
43.9710	78.0000
43.9802	57.0000
43.9894	67.0000
43.9987	69.0000
44.0079	67.0000
44.0171	60.0000
44.0263	71.0000
44.0356	68.0000
44.0448	65.0000
44.0540	74.0000
44.0632	67.0000
44.0724	58.0000
44.0817	75.0000
44.0909	62.0000
44.1001	60.0000
44.1093	62.0000
44.1186	75.0000
44.1278	72.0000
44.1370	70.0000
44.1462	62.0000
44.1554	74.0000
44.1647	66.0000
44.1739	65.0000
44.1831	65.0000
44.1923	63.0000
44.2016	61.0000
44.2108	68.0000
44.2200	78.0000
44.2292	70.0000
44.2385	70.0000
44.2477	54.0000
44.2569	54.0000
44.2661	68.0000
44.2753	61.0000
44.2846	89.0000
44.2938	57.0000
44.3030	97.0000
44.3122	68.0000
44.3215	61.0000
44.3307	74.0000
44.3399	75.0000
44.3491	58.0000
44.3583	82.0000
44.3676	77.0000
44.3768	67.0000
44.3860	70.0000
44.3952	78.0000
44.4045	87.0000
44.4137	77.0000
44.4229	60.0000
44.4321	68.0000
44.4414	85.0000
44.4506	65.0000
44.4598	80.0000
44.4690	78.0000
44.4782	79.0000
44.4875	64.0000
44.4967	74.0000
44.5059	74.0000
44.5151	82.0000
44.5244	66.0000
44.5336	65.0000
44.5428	59.0000
44.5520	81.0000
44.5612	68.0000
44.5705	60.0000
44.5797	65.0000
44.5889	81.0000
44.5981	69.0000
44.6074	60.0000
44.6166	72.0000
44.6258	67.0000
44.6350	89.0000
44.6442	63.0000
44.6535	71.0000
44.6627	68.0000
44.6719	80.0000
44.6811	61.0000
44.6904	61.0000
44.6996	56.0000
44.7088	73.0000
44.7180	64.0000
44.7273	61.0000
44.7365	62.0000
44.7457	82.0000
44.7549	76.0000
44.7641	80.0000
44.7734	70.0000
44.7826	74.0000
44.7918	69.0000
44.8010	66.0000
44.8103	64.0000
44.8195	59.0000
44.8287	63.0000
44.8379	66.0000
44.8471	70.0000
44.8564	59.0000
44.8656	65.0000
44.8748	70.0000
44.8840	56.0000
44.8933	71.0000
44.9025	79.0000
44.9117	65.0000
44.9209	81.0000
44.9302	53.0000
44.9394	66.0000
44.9486	61.0000
44.9578	61.0000
44.9670	59.0000
44.9763	65.0000
44.9855	54.0000
44.9947	77.0000
45.0039	89.0000
45.0132	72.0000
45.0224	63.0000
45.0316	69.0000
45.0408	78.0000
45.0500	72.0000
45.0593	69.0000
45.0685	70.0000
45.0777	65.0000
45.0869	90.0000
45.0962	71.0000
45.1054	69.0000
45.1146	58.0000
45.1238	70.0000
45.1330	68.0000
45.1423	69.0000
45.1515	70.0000
45.1607	60.0000
45.1699	70.0000
45.1792	66.0000
45.1884	67.0000
45.1976	71.0000
45.2068	62.0000
45.2161	78.0000
45.2253	66.0000
45.2345	56.0000
45.2437	58.0000
45.2529	61.0000
45.2622	60.0000
45.2714	62.0000
45.2806	68.0000
45.2898	59.0000
45.2991	59.0000
45.3083	54.0000
45.3175	68.0000
45.3267	62.0000
45.3359	65.0000
45.3452	76.0000
45.3544	71.0000
45.3636	73.0000
45.3728	76.0000
45.3821	52.0000
45.3913	65.0000
45.4005	72.0000
45.4097	70.0000
45.4190	63.0000
45.4282	65.0000
45.4374	62.0000
45.4466	59.0000
45.4558	74.0000
45.4651	62.0000
45.4743	67.0000
45.4835	69.0000
45.4927	60.0000
45.5020	65.0000
45.5112	71.0000
45.5204	71.0000
45.5296	68.0000
45.5388	48.0000
45.5481	63.0000
45.5573	76.0000
45.5665	69.0000
45.5757	71.0000
45.5850	55.0000
45.5942	58.0000
45.6034	64.0000
45.6126	57.0000
45.6219	59.0000
45.6311	63.0000
45.6403	53.0000
45.6495	80.0000
45.6587	55.0000
45.6680	63.0000
45.6772	80.0000
45.6864	62.0000
45.6956	61.0000
45.7049	65.0000
45.7141	57.0000
45.7233	82.0000
45.7325	61.0000
45.7417	56.0000
45.7510	76.0000
45.7602	68.0000
45.7694	62.0000
45.7786	61.0000
45.7879	57.0000
45.7971	65.0000
45.8063	69.0000
45.8155	58.0000
45.8247	56.0000
45.8340	61.0000
45.8432	74.0000
45.8524	61.0000
45.8616	40.0000
45.8709	65.0000
45.8801	74.0000
45.8893	53.0000
45.8985	55.0000
45.9078	63.0000
45.9170	70.0000
45.9262	59.0000
45.9354	68.0000
45.9446	79.0000
45.9539	52.0000
45.9631	75.0000
45.9723	56.0000
45.9815	66.0000
45.9908	68.0000
46.0000	62.0000
46.0092	66.0000
46.0184	75.0000
46.0276	58.0000
46.0369	62.0000
46.0461	56.0000
46.0553	62.0000
46.0645	69.0000
46.0738	65.0000
46.0830	60.0000
46.0922	54.0000
46.1014	64.0000
46.1107	54.0000
46.1199	64.0000
46.1291	55.0000
46.1383	57.0000
46.1475	58.0000
46.1568	62.0000
46.1660	70.0000
46.1752	64.0000
46.1844	60.0000
46.1937	52.0000
46.2029	55.0000
46.2121	55.0000
46.2213	91.0000
46.2305	61.0000
46.2398	62.0000
46.2490	51.0000
46.2582	64.0000
46.2674	62.0000
46.2767	51.0000
46.2859	72.0000
46.2951	66.0000
46.3043	48.0000
46.3135	72.0000
46.3228	66.0000
46.3320	53.0000
46.3412	58.0000
46.3504	58.0000
46.3597	65.0000
46.3689	71.0000
46.3781	61.0000
46.3873	50.0000
46.3966	60.0000
46.4058	53.0000
46.4150	66.0000
46.4242	56.0000
46.4334	56.0000
46.4427	63.0000
46.4519	59.0000
46.4611	64.0000
46.4703	50.0000
46.4796	43.0000
46.4888	63.0000
46.4980	58.0000
46.5072	61.0000
46.5164	49.0000
46.5257	67.0000
46.5349	84.0000
46.5441	54.0000
46.5533	83.0000
46.5626	64.0000
46.5718	48.0000
46.5810	60.0000
46.5902	61.0000
46.5995	64.0000
46.6087	67.0000
46.6179	75.0000
46.6271	61.0000
46.6363	68.0000
46.6456	66.0000
46.6548	59.0000
46.6640	59.0000
46.6732	62.0000
46.6825	65.0000
46.6917	58.0000
46.7009	63.0000
46.7101	61.0000
46.7193	48.0000
46.7286	63.0000
46.7378	58.0000
46.7470	68.0000
46.7562	63.0000
46.7655	52.0000
46.7747	66.0000
46.7839	53.0000
46.7931	76.0000
46.8024	47.0000
46.8116	54.0000
46.8208	56.0000
46.8300	71.0000
46.8392	65.0000
46.8485	49.0000
46.8577	56.0000
46.8669	58.0000
46.8761	43.0000
46.8854	54.0000
46.8946	54.0000
46.9038	66.0000
46.9130	61.0000
46.9222	61.0000
46.9315	65.0000
46.9407	46.0000
46.9499	40.0000
46.9591	54.0000
46.9684	63.0000
46.9776	55.0000
46.9868	59.0000
46.9960	47.0000
47.0052	46.0000
47.0145	54.0000
47.0237	71.0000
47.0329	64.0000
47.0421	65.0000
47.0514	56.0000
47.0606	59.0000
47.0698	49.0000
47.0790	65.0000
47.0883	68.0000
47.0975	53.0000
47.1067	66.0000
47.1159	58.0000
47.1251	45.0000
47.1344	63.0000
47.1436	62.0000
47.1528	66.0000
47.1620	53.0000
47.1713	50.0000
47.1805	62.0000
47.1897	39.0000
47.1989	43.0000
47.2081	59.0000
47.2174	53.0000
47.2266	52.0000
47.2358	46.0000
47.2450	53.0000
47.2543	58.0000
47.2635	56.0000
47.2727	51.0000
47.2819	67.0000
47.2912	53.0000
47.3004	65.0000
47.3096	45.0000
47.3188	54.0000
47.3280	66.0000
47.3373	54.0000
47.3465	64.0000
47.3557	60.0000
47.3649	61.0000
47.3742	61.0000
47.3834	65.0000
47.3926	60.0000
47.4018	58.0000
47.4110	61.0000
47.4203	56.0000
47.4295	41.0000
47.4387	44.0000
47.4479	62.0000
47.4572	47.0000
47.4664	57.0000
47.4756	67.0000
47.4848	60.0000
47.4940	44.0000
47.5033	61.0000
47.5125	63.0000
47.5217	63.0000
47.5309	64.0000
47.5402	65.0000
47.5494	55.0000
47.5586	51.0000
47.5678	55.0000
47.5771	63.0000
47.5863	57.0000
47.5955	60.0000
47.6047	48.0000
47.6139	58.0000
47.6232	53.0000
47.6324	66.0000
47.6416	57.0000
47.6508	51.0000
47.6601	54.0000
47.6693	55.0000
47.6785	69.0000
47.6877	58.0000
47.6969	53.0000
47.7062	64.0000
47.7154	58.0000
47.7246	49.0000
47.7338	50.0000
47.7431	69.0000
47.7523	62.0000
47.7615	57.0000
47.7707	56.0000
47.7800	60.0000
47.7892	55.0000
47.7984	39.0000
47.8076	56.0000
47.8168	56.0000
47.8261	58.0000
47.8353	61.0000
47.8445	52.0000
47.8537	55.0000
47.8630	65.0000
47.8722	55.0000
47.8814	50.0000
47.8906	52.0000
47.8998	78.0000
47.9091	58.0000
47.9183	58.0000
47.9275	45.0000
47.9367	57.0000
47.9460	56.0000
47.9552	64.0000
47.9644	66.0000
47.9736	66.0000
47.9829	65.0000
47.9921	55.0000
48.0013	51.0000
