11.0000	302.0000
11.0092	310.0000
11.0184	313.0000
11.0277	294.0000
11.0369	310.0000
11.0461	310.0000
11.0553	323.0000
11.0646	309.0000
11.0738	312.0000
11.0830	316.0000
11.0922	329.0000
11.1014	301.0000
11.1107	329.0000
11.1199	331.0000
11.1291	315.0000
11.1383	310.0000
11.1476	301.0000
11.1568	300.0000
11.1660	297.0000
11.1752	294.0000
11.1845	311.0000
11.1937	311.0000
11.2029	320.0000
11.2121	312.0000
11.2213	311.0000
11.2306	318.0000
11.2398	290.0000
11.2490	295.0000
11.2582	273.0000
11.2675	289.0000
11.2767	288.0000
11.2859	293.0000
11.2951	290.0000
11.3043	267.0000
11.3136	303.0000
11.3228	311.0000
11.3320	309.0000
11.3412	334.0000
11.3505	276.0000
11.3597	290.0000
11.3689	288.0000
11.3781	299.0000
11.3874	273.0000
11.3966	274.0000
11.4058	249.0000
11.4150	289.0000
11.4242	284.0000
11.4335	273.0000
11.4427	293.0000
11.4519	275.0000
11.4611	282.0000
11.4704	268.0000
11.4796	265.0000
11.4888	312.0000
11.4980	277.0000
11.5072	272.0000
11.5165	264.0000
11.5257	273.0000
11.5349	242.0000
11.5441	258.0000
11.5534	248.0000
11.5626	267.0000
11.5718	252.0000
11.5810	260.0000
11.5902	267.0000
11.5995	282.0000
11.6087	280.0000
11.6179	261.0000
11.6271	255.0000
11.6364	289.0000
11.6456	246.0000
11.6548	281.0000
11.6640	275.0000
11.6733	253.0000
11.6825	279.0000
11.6917	233.0000
11.7009	243.0000
11.7101	267.0000
11.7194	257.0000
11.7286	243.0000
11.7378	244.0000
11.7470	267.0000
11.7563	259.0000
11.7655	258.0000
11.7747	256.0000
11.7839	249.0000
11.7931	261.0000
11.8024	243.0000
11.8116	242.0000
11.8208	263.0000
11.8300	237.0000
11.8393	249.0000
11.8485	221.0000
11.8577	248.0000
11.8669	280.0000
11.8762	231.0000
11.8854	234.0000
11.8946	269.0000
11.9038	258.0000
11.9130	239.0000
11.9223	206.0000
11.9315	260.0000
11.9407	247.0000
11.9499	222.0000
11.9592	236.0000
11.9684	220.0000
11.9776	275.0000
11.9868	267.0000
11.9960	226.0000
12.0053	231.0000
12.0145	233.0000
12.0237	218.0000
12.0329	229.0000
12.0422	250.0000
12.0514	247.0000
12.0606	251.0000
12.0698	211.0000
12.0791	251.0000
12.0883	210.0000
12.0975	220.0000
12.1067	252.0000
12.1159	222.0000
12.1252	247.0000
12.1344	244.0000
12.1436	242.0000
12.1528	216.0000
12.1621	229.0000
12.1713	203.0000
12.1805	213.0000
12.1897	226.0000
12.1989	222.0000
12.2082	215.0000
12.2174	224.0000
12.2266	206.0000
12.2358	228.0000
12.2451	232.0000
12.2543	224.0000
12.2635	216.0000
12.2727	220.0000
12.2819	241.0000
12.2912	201.0000
12.3004	230.0000
12.3096	198.0000
12.3188	196.0000
12.3281	206.0000
12.3373	224.0000
12.3465	214.0000
12.3557	234.0000
12.3650	230.0000
12.3742	227.0000
12.3834	237.0000
12.3926	188.0000
12.4018	202.0000
12.4111	204.0000
12.4203	198.0000
12.4295	206.0000
12.4387	223.0000
12.4480	245.0000
12.4572	234.0000
12.4664	203.0000
12.4756	196.0000
12.4848	217.0000
12.4941	219.0000
12.5033	208.0000
12.5125	214.0000
12.5217	198.0000
12.5310	211.0000
12.5402	206.0000
12.5494	228.0000
12.5586	244.0000
12.5679	219.0000
12.5771	226.0000
12.5863	205.0000
12.5955	182.0000
12.6047	212.0000
12.6140	211.0000
12.6232	193.0000
12.6324	217.0000
12.6416	187.0000
12.6509	202.0000
12.6601	187.0000
12.6693	211.0000
12.6785	203.0000
12.6877	212.0000
12.6970	184.0000
12.7062	207.0000
12.7154	215.0000
12.7246	194.0000
12.7339	216.0000
12.7431	203.0000
12.7523	193.0000
12.7615	230.0000
12.7707	212.0000
12.7800	191.0000
12.7892	202.0000
12.7984	194.0000
12.8076	178.0000
12.8169	187.0000
12.8261	174.0000
12.8353	192.0000
12.8445	215.0000
12.8538	181.0000
12.8630	197.0000
12.8722	190.0000
12.8814	217.0000
12.8906	236.0000
12.8999	263.0000
12.9091	349.0000
12.9183	466.0000
12.9275	603.0000
12.9368	525.0000
12.9460	385.0000
12.9552	275.0000
12.9644	243.0000
12.9736	221.0000
12.9829	256.0000
12.9921	342.0000
13.0013	401.0000
13.0105	363.0000
13.0198	280.0000
13.0290	255.0000
13.0382	216.0000
13.0474	216.0000
13.0567	179.0000
13.0659	182.0000
13.0751	177.0000
13.0843	211.0000
13.0935	193.0000
13.1028	179.0000
13.1120	173.0000
13.1212	174.0000
13.1304	179.0000
13.1397	184.0000
13.1489	188.0000
13.1581	199.0000
13.1673	182.0000
13.1765	215.0000
13.1858	183.0000
13.1950	183.0000
13.2042	172.0000
13.2134	165.0000
13.2227	183.0000
13.2319	179.0000
13.2411	187.0000
13.2503	180.0000
13.2596	199.0000
13.2688	162.0000
13.2780	187.0000
13.2872	202.0000
13.2964	199.0000
13.3057	190.0000
13.3149	202.0000
13.3241	175.0000
13.3333	179.0000
13.3426	190.0000
13.3518	198.0000
13.3610	185.0000
13.3702	193.0000
13.3794	160.0000
13.3887	186.0000
13.3979	161.0000
13.4071	178.0000
13.4163	183.0000
13.4256	187.0000
13.4348	189.0000
13.4440	175.0000
13.4532	167.0000
13.4624	179.0000
13.4717	172.0000
13.4809	161.0000
13.4901	148.0000
13.4993	169.0000
13.5086	167.0000
13.5178	177.0000
13.5270	172.0000
13.5362	170.0000
13.5455	155.0000
13.5547	176.0000
13.5639	171.0000
13.5731	172.0000
13.5823	147.0000
13.5916	183.0000
13.6008	166.0000
13.6100	177.0000
13.6192	150.0000
13.6285	170.0000
13.6377	181.0000
13.6469	153.0000
13.6561	150.0000
13.6653	163.0000
13.6746	195.0000
13.6838	152.0000
13.6930	159.0000
13.7022	158.0000
13.7115	171.0000
13.7207	155.0000
13.7299	144.0000
13.7391	183.0000
13.7484	181.0000
13.7576	154.0000
13.7668	175.0000
13.7760	177.0000
13.7852	159.0000
13.7945	166.0000
13.8037	155.0000
13.8129	157.0000
13.8221	158.0000
13.8314	150.0000
13.8406	154.0000
13.8498	147.0000
13.8590	146.0000
13.8682	150.0000
13.8775	182.0000
13.8867	160.0000
13.8959	140.0000
13.9051	167.0000
13.9144	145.0000
13.9236	142.0000
13.9328	139.0000
13.9420	171.0000
13.9512	163.0000
13.9605	149.0000
13.9697	161.0000
13.9789	148.0000
13.9881	163.0000
13.9974	172.0000
14.0066	150.0000
14.0158	158.0000
14.0250	156.0000
14.0343	162.0000
14.0435	160.0000
14.0527	147.0000
14.0619	142.0000
14.0711	167.0000
14.0804	137.0000
14.0896	151.0000
14.0988	139.0000
14.1080	174.0000
14.1173	167.0000
14.1265	146.0000
14.1357	159.0000
14.1449	157.0000
14.1541	159.0000
14.1634	145.0000
14.1726	157.0000
14.1818	164.0000
14.1910	136.0000
14.2003	143.0000
14.2095	171.0000
14.2187	153.0000
14.2279	152.0000
14.2372	124.0000
14.2464	160.0000
14.2556	143.0000
14.2648	160.0000
14.2740	151.0000
14.2833	137.0000
14.2925	140.0000
14.3017	126.0000
14.3109	141.0000
14.3202	143.0000
14.3294	132.0000
14.3386	144.0000
14.3478	144.0000
14.3570	161.0000
14.3663	140.0000
14.3755	144.0000
14.3847	140.0000
14.3939	136.0000
14.4032	160.0000
14.4124	126.0000
14.4216	155.0000
14.4308	140.0000
14.4401	133.0000
14.4493	163.0000
14.4585	132.0000
14.4677	145.0000
14.4769	156.0000
14.4862	154.0000
14.4954	150.0000
14.5046	120.0000
14.5138	136.0000
14.5231	139.0000
14.5323	146.0000
14.5415	145.0000
14.5507	126.0000
14.5599	159.0000
14.5692	132.0000
14.5784	156.0000
14.5876	138.0000
14.5968	132.0000
14.6061	139.0000
14.6153	154.0000
14.6245	135.0000
14.6337	133.0000
14.6429	160.0000
14.6522	143.0000
14.6614	156.0000
14.6706	139.0000
14.6798	141.0000
14.6891	147.0000
14.6983	129.0000
14.7075	133.0000
14.7167	143.0000
14.7260	145.0000
14.7352	148.0000
14.7444	144.0000
14.7536	133.0000
14.7628	141.0000
14.7721	162.0000
14.7813	122.0000
14.7905	143.0000
14.7997	127.0000
14.8090	134.0000
14.8182	103.0000
14.8274	132.0000
14.8366	122.0000
14.8458	128.0000
14.8551	124.0000
14.8643	130.0000
14.8735	132.0000
14.8827	124.0000
14.8920	125.0000
14.9012	120.0000
14.9104	136.0000
14.9196	151.0000
14.9289	119.0000
14.9381	150.0000
14.9473	138.0000
14.9565	129.0000
14.9657	128.0000
14.9750	130.0000
14.9842	135.0000
14.9934	106.0000
15.0026	114.0000
15.0119	150.0000
15.0211	127.0000
15.0303	148.0000
15.0395	124.0000
15.0487	130.0000
15.0580	124.0000
15.0672	126.0000
15.0764	122.0000
15.0856	130.0000
15.0949	142.0000
15.1041	110.0000
15.1133	121.0000
15.1225	126.0000
15.1317	128.0000
15.1410	145.0000
15.1502	113.0000
15.1594	121.0000
15.1686	117.0000
15.1779	123.0000
15.1871	125.0000
15.1963	122.0000
15.2055	106.0000
15.2148	130.0000
15.2240	131.0000
15.2332	123.0000
15.2424	117.0000
15.2516	117.0000
15.2609	146.0000
15.2701	126.0000
15.2793	138.0000
15.2885	143.0000
15.2978	119.0000
15.3070	125.0000
15.3162	122.0000
15.3254	111.0000
15.3346	132.0000
15.3439	110.0000
15.3531	131.0000
15.3623	104.0000
15.3715	126.0000
15.3808	130.0000
15.3900	99.0000
15.3992	106.0000
15.4084	130.0000
15.4177	124.0000
15.4269	136.0000
15.4361	137.0000
15.4453	142.0000
15.4545	147.0000
15.4638	119.0000
15.4730	116.0000
15.4822	119.0000
15.4914	112.0000
15.5007	114.0000
15.5099	130.0000
15.5191	122.0000
15.5283	109.0000
15.5375	135.0000
15.5468	143.0000
15.5560	134.0000
15.5652	147.0000
15.5744	125.0000
15.5837	106.0000
15.5929	121.0000
15.6021	127.0000
15.6113	124.0000
15.6206	115.0000
15.6298	133.0000
15.6390	118.0000
15.6482	110.0000
15.6574	124.0000
15.6667	125.0000
15.6759	115.0000
15.6851	105.0000
15.6943	116.0000
15.7036	140.0000
15.7128	132.0000
15.7220	113.0000
15.7312	120.0000
15.7404	112.0000
15.7497	115.0000
15.7589	114.0000
15.7681	134.0000
15.7773	98.0000
15.7866	108.0000
15.7958	117.0000
15.8050	112.0000
15.8142	145.0000
15.8234	104.0000
15.8327	106.0000
15.8419	118.0000
15.8511	107.0000
15.8603	106.0000
15.8696	115.0000
15.8788	136.0000
15.8880	121.0000
15.8972	111.0000
15.9065	115.0000
15.9157	134.0000
15.9249	117.0000
15.9341	115.0000
15.9433	117.0000
15.9526	124.0000
15.9618	106.0000
15.9710	124.0000
15.9802	137.0000
15.9895	113.0000
15.9987	118.0000
16.0079	147.0000
16.0171	106.0000
16.0263	118.0000
16.0356	107.0000
16.0448	119.0000
16.0540	116.0000
16.0632	111.0000
16.0725	112.0000
16.0817	121.0000
16.0909	116.0000
16.1001	112.0000
16.1094	117.0000
16.1186	130.0000
16.1278	122.0000
16.1370	106.0000
16.1462	124.0000
16.1555	114.0000
16.1647	108.0000
16.1739	111.0000
16.1831	107.0000
16.1924	105.0000
16.2016	103.0000
16.2108	123.0000
16.2200	104.0000
16.2292	108.0000
16.2385	115.0000
16.2477	101.0000
16.2569	115.0000
16.2661	94.0000
16.2754	118.0000
16.2846	105.0000
16.2938	100.0000
16.3030	129.0000
16.3122	119.0000
16.3215	97.0000
16.3307	121.0000
16.3399	109.0000
16.3491	120.0000
16.3584	101.0000
16.3676	95.0000
16.3768	118.0000
16.3860	108.0000
16.3953	111.0000
16.4045	126.0000
16.4137	85.0000
16.4229	106.0000
16.4321	106.0000
16.4414	114.0000
16.4506	119.0000
16.4598	98.0000
16.4690	122.0000
16.4783	80.0000
16.4875	106.0000
16.4967	112.0000
16.5059	120.0000
16.5151	129.0000
16.5244	101.0000
16.5336	116.0000
16.5428	124.0000
16.5520	115.0000
16.5613	111.0000
16.5705	112.0000
16.5797	107.0000
16.5889	107.0000
16.5982	113.0000
16.6074	78.0000
16.6166	114.0000
16.6258	109.0000
16.6350	107.0000
16.6443	123.0000
16.6535	90.0000
16.6627	88.0000
16.6719	109.0000
16.6812	100.0000
16.6904	100.0000
16.6996	105.0000
16.7088	100.0000
16.7180	106.0000
16.7273	119.0000
16.7365	100.0000
16.7457	102.0000
16.7549	102.0000
16.7642	100.0000
16.7734	94.0000
16.7826	102.0000
16.7918	85.0000
16.8011	102.0000
16.8103	111.0000
16.8195	111.0000
16.8287	115.0000
16.8379	102.0000
16.8472	122.0000
16.8564	123.0000
16.8656	106.0000
16.8748	115.0000
16.8841	89.0000
16.8933	110.0000
16.9025	106.0000
16.9117	107.0000
16.9209	105.0000
16.9302	105.0000
16.9394	82.0000
16.9486	105.0000
16.9578	110.0000
16.9671	113.0000
16.9763	105.0000
16.9855	92.0000
16.9947	95.0000
17.0039	101.0000
17.0132	93.0000
17.0224	104.0000
17.0316	121.0000
17.0408	107.0000
17.0501	90.0000
17.0593	113.0000
17.0685	100.0000
17.0777	107.0000
17.0870	85.0000
17.0962	99.0000
17.1054	110.0000
17.1146	78.0000
17.1238	90.0000
17.1331	102.0000
17.1423	113.0000
17.1515	104.0000
17.1607	89.0000
17.1700	86.0000
17.1792	104.0000
17.1884	101.0000
17.1976	92.0000
17.2068	88.0000
17.2161	101.0000
17.2253	93.0000
17.2345	109.0000
17.2437	93.0000
17.2530	100.0000
17.2622	97.0000
17.2714	111.0000
17.2806	120.0000
17.2899	88.0000
17.2991	96.0000
17.3083	98.0000
17.3175	101.0000
17.3267	89.0000
17.3360	91.0000
17.3452	99.0000
17.3544	106.0000
17.3636	93.0000
17.3729	99.0000
17.3821	94.0000
17.3913	99.0000
17.4005	99.0000
17.4097	81.0000
17.4190	93.0000
17.4282	92.0000
17.4374	78.0000
17.4466	85.0000
17.4559	79.0000
17.4651	85.0000
17.4743	91.0000
17.4835	86.0000
17.4927	94.0000
17.5020	99.0000
17.5112	95.0000
17.5204	113.0000
17.5296	104.0000
17.5389	84.0000
17.5481	91.0000
17.5573	94.0000
17.5665	64.0000
17.5758	89.0000
17.5850	103.0000
17.5942	104.0000
17.6034	89.0000
17.6126	87.0000
17.6219	83.0000
17.6311	70.0000
17.6403	80.0000
17.6495	108.0000
17.6588	86.0000
17.6680	86.0000
17.6772	92.0000
17.6864	102.0000
17.6956	92.0000
17.7049	86.0000
17.7141	83.0000
17.7233	85.0000
17.7325	89.0000
17.7418	93.0000
17.7510	88.0000
17.7602	86.0000
17.7694	96.0000
17.7787	100.0000
17.7879	101.0000
17.7971	79.0000
17.8063	95.0000
17.8155	108.0000
17.8248	64.0000
17.8340	89.0000
17.8432	90.0000
17.8524	85.0000
17.8617	105.0000
17.8709	93.0000
17.8801	77.0000
17.8893	84.0000
17.8985	96.0000
17.9078	90.0000
17.9170	95.0000
17.9262	83.0000
17.9354	103.0000
17.9447	91.0000
17.9539	103.0000
17.9631	90.0000
17.9723	79.0000
17.9816	82.0000
17.9908	92.0000
18.0000	92.0000
18.0092	105.0000
18.0184	97.0000
18.0277	101.0000
18.0369	64.0000
18.0461	88.0000
18.0553	90.0000
18.0646	110.0000
18.0738	66.0000
18.0830	89.0000
18.0922	93.0000
18.1014	106.0000
18.1107	92.0000
18.1199	81.0000
18.1291	82.0000
18.1383	85.0000
18.1476	84.0000
18.1568	82.0000
18.1660	83.0000
18.1752	80.0000
18.1844	76.0000
18.1937	98.0000
18.2029	85.0000
18.2121	94.0000
18.2213	76.0000
18.2306	83.0000
18.2398	72.0000
18.2490	85.0000
18.2582	76.0000
18.2675	97.0000
18.2767	90.0000
18.2859	67.0000
18.2951	85.0000
18.3043	82.0000
18.3136	82.0000
18.3228	92.0000
18.3320	79.0000
18.3412	83.0000
18.3505	77.0000
18.3597	94.0000
18.3689	74.0000
18.3781	100.0000
18.3873	84.0000
18.3966	87.0000
18.4058	90.0000
18.4150	74.0000
18.4242	97.0000
18.4335	100.0000
18.4427	77.0000
18.4519	98.0000
18.4611	87.0000
18.4704	90.0000
18.4796	73.0000
18.4888	101.0000
18.4980	83.0000
18.5072	85.0000
18.5165	80.0000
18.5257	87.0000
18.5349	85.0000
18.5441	71.0000
18.5534	81.0000
18.5626	92.0000
18.5718	80.0000
18.5810	94.0000
18.5902	86.0000
18.5995	84.0000
18.6087	82.0000
18.6179	82.0000
18.6271	69.0000
18.6364	91.0000
18.6456	72.0000
18.6548	101.0000
18.6640	89.0000
18.6732	82.0000
18.6825	86.0000
18.6917	94.0000
18.7009	75.0000
18.7101	103.0000
18.7194	77.0000
18.7286	90.0000
18.7378	83.0000
18.7470	90.0000
18.7563	93.0000
18.7655	95.0000
18.7747	98.0000
18.7839	79.0000
18.7931	73.0000
18.8024	78.0000
18.8116	81.0000
18.8208	91.0000
18.8300	95.0000
18.8393	102.0000
18.8485	90.0000
18.8577	94.0000
18.8669	92.0000
18.8761	62.0000
18.8854	99.0000
18.8946	76.0000
18.9038	88.0000
18.9130	79.0000
18.9223	90.0000
18.9315	78.0000
18.9407	68.0000
18.9499	67.0000
18.9592	75.0000
18.9684	92.0000
18.9776	91.0000
18.9868	91.0000
18.9960	87.0000
19.0053	82.0000
19.0145	78.0000
19.0237	86.0000
19.0329	78.0000
19.0422	83.0000
19.0514	80.0000
19.0606	79.0000
19.0698	92.0000
19.0790	83.0000
19.0883	94.0000
19.0975	95.0000
19.1067	97.0000
19.1159	85.0000
19.1252	87.0000
19.1344	77.0000
19.1436	100.0000
19.1528	83.0000
19.1621	85.0000
19.1713	87.0000
19.1805	87.0000
19.1897	74.0000
19.1989	85.0000
19.2082	74.0000
19.2174	82.0000
19.2266	105.0000
19.2358	89.0000
19.2451	97.0000
19.2543	85.0000
19.2635	97.0000
19.2727	88.0000
19.2819	91.0000
19.2912	82.0000
19.3004	80.0000
19.3096	73.0000
19.3188	98.0000
19.3281	73.0000
19.3373	71.0000
19.3465	83.0000
19.3557	87.0000
19.3649	86.0000
19.3742	73.0000
19.3834	74.0000
19.3926	102.0000
19.4018	87.0000
19.4111	74.0000
19.4203	82.0000
19.4295	77.0000
19.4387	77.0000
19.4480	88.0000
19.4572	96.0000
19.4664	73.0000
19.4756	86.0000
19.4848	84.0000
19.4941	82.0000
19.5033	72.0000
19.5125	76.0000
19.5217	85.0000
19.5310	84.0000
19.5402	84.0000
19.5494	78.0000
19.5586	84.0000
19.5678	89.0000
19.5771	89.0000
19.5863	87.0000
19.5955	70.0000
19.6047	104.0000
19.6140	69.0000
19.6232	86.0000
19.6324	87.0000
19.6416	70.0000
19.6509	87.0000
19.6601	82.0000
19.6693	82.0000
19.6785	91.0000
19.6877	90.0000
19.6970	81.0000
19.7062	81.0000
19.7154	97.0000
19.7246	82.0000
19.7339	82.0000
19.7431	81.0000
19.7523	75.0000
19.7615	88.0000
19.7707	82.0000
19.7800	87.0000
19.7892	80.0000
19.7984	70.0000
19.8076	79.0000
19.8169	106.0000
19.8261	89.0000
19.8353	90.0000
19.8445	93.0000
19.8537	85.0000
19.8630	78.0000
19.8722	81.0000
19.8814	81.0000
19.8906	86.0000
19.8999	76.0000
19.9091	78.0000
19.9183	74.0000
19.9275	85.0000
19.9368	91.0000
19.9460	60.0000
19.9552	89.0000
19.9644	81.0000
19.9736	87.0000
19.9829	85.0000
19.9921	92.0000
20.0013	79.0000
20.0105	92.0000
20.0198	92.0000
20.0290	72.0000
20.0382	81.0000
20.0474	93.0000
20.0566	80.0000
20.0659	88.0000
20.0751	79.0000
20.0843	86.0000
20.0935	87.0000
20.1028	70.0000
20.1120	73.0000
20.1212	87.0000
20.1304	72.0000
20.1397	80.0000
20.1489	77.0000
20.1581	72.0000
20.1673	78.0000
20.1765	83.0000
20.1858	78.0000
20.1950	89.0000
20.2042	79.0000
20.2134	63.0000
20.2227	99.0000
20.2319	93.0000
20.2411	84.0000
20.2503	105.0000
20.2595	71.0000
20.2688	84.0000
20.2780	95.0000
20.2872	81.0000
20.2964	93.0000
20.3057	87.0000
20.3149	91.0000
20.3241	98.0000
20.3333	96.0000
20.3426	79.0000
20.3518	88.0000
20.3610	75.0000
20.3702	88.0000
20.3794	90.0000
20.3887	86.0000
20.3979	78.0000
20.4071	91.0000
20.4163	75.0000
20.4256	102.0000
20.4348	83.0000
20.4440	90.0000
20.4532	84.0000
20.4624	86.0000
20.4717	95.0000
20.4809	95.0000
20.4901	87.0000
20.4993	74.0000
20.5086	86.0000
20.5178	77.0000
20.5270	79.0000
20.5362	104.0000
20.5454	70.0000
20.5547	82.0000
20.5639	93.0000
20.5731	91.0000
20.5823	66.0000
20.5916	85.0000
20.6008	87.0000
20.6100	69.0000
20.6192	85.0000
20.6285	69.0000
20.6377	91.0000
20.6469	84.0000
20.6561	86.0000
20.6653	76.0000
20.6746	100.0000
20.6838	90.0000
20.6930	99.0000
20.7022	84.0000
20.7115	98.0000
20.7207	92.0000
20.7299	77.0000
20.7391	72.0000
20.7483	96.0000
20.7576	86.0000
20.7668	76.0000
20.7760	80.0000
20.7852	83.0000
20.7945	94.0000
20.8037	84.0000
20.8129	98.0000
20.8221	89.0000
20.8314	90.0000
20.8406	65.0000
20.8498	80.0000
20.8590	75.0000
20.8682	74.0000
20.8775	76.0000
20.8867	69.0000
20.8959	74.0000
20.9051	71.0000
20.9144	65.0000
20.9236	72.0000
20.9328	77.0000
20.9420	71.0000
20.9512	75.0000
20.9605	101.0000
20.9697	75.0000
20.9789	78.0000
20.9881	76.0000
20.9974	79.0000
21.0066	104.0000
21.0158	80.0000
21.0250	83.0000
21.0342	89.0000
21.0435	68.0000
21.0527	73.0000
21.0619	83.0000
21.0711	92.0000
21.0804	68.0000
21.0896	78.0000
21.0988	86.0000
21.1080	76.0000
21.1173	86.0000
21.1265	83.0000
21.1357	80.0000
21.1449	88.0000
21.1541	85.0000
21.1634	79.0000
21.1726	94.0000
21.1818	83.0000
21.1910	74.0000
21.2003	93.0000
21.2095	74.0000
21.2187	94.0000
21.2279	74.0000
21.2371	80.0000
21.2464	79.0000
21.2556	92.0000
21.2648	89.0000
21.2740	67.0000
21.2833	89.0000
21.2925	80.0000
21.3017	77.0000
21.3109	77.0000
21.3202	74.0000
21.3294	70.0000
21.3386	84.0000
21.3478	89.0000
21.3570	83.0000
21.3663	70.0000
21.3755	87.0000
21.3847	71.0000
21.3939	70.0000
21.4032	92.0000
21.4124	72.0000
21.4216	93.0000
21.4308	81.0000
21.4400	74.0000
21.4493	74.0000
21.4585	70.0000
21.4677	73.0000
21.4769	82.0000
21.4862	75.0000
21.4954	81.0000
21.5046	80.0000
21.5138	87.0000
21.5231	81.0000
21.5323	76.0000
21.5415	79.0000
21.5507	79.0000
21.5599	83.0000
21.5692	79.0000
21.5784	92.0000
21.5876	58.0000
21.5968	96.0000
21.6061	69.0000
21.6153	81.0000
21.6245	85.0000
21.6337	79.0000
21.6429	94.0000
21.6522	79.0000
21.6614	79.0000
21.6706	71.0000
21.6798	77.0000
21.6891	101.0000
21.6983	74.0000
21.7075	65.0000
21.7167	81.0000
21.7259	85.0000
21.7352	79.0000
21.7444	81.0000
21.7536	79.0000
21.7628	95.0000
21.7721	94.0000
21.7813	77.0000
21.7905	71.0000
21.7997	83.0000
21.8090	97.0000
21.8182	82.0000
21.8274	83.0000
21.8366	85.0000
21.8458	77.0000
21.8551	80.0000
21.8643	75.0000
21.8735	71.0000
21.8827	76.0000
21.8920	81.0000
21.9012	81.0000
21.9104	93.0000
21.9196	89.0000
21.9288	82.0000
21.9381	76.0000
21.9473	74.0000
21.9565	79.0000
21.9657	67.0000
21.9750	77.0000
21.9842	79.0000
21.9934	73.0000
22.0026	69.0000
22.0119	71.0000
22.0211	69.0000
22.0303	85.0000
22.0395	82.0000
22.0487	87.0000
22.0580	62.0000
22.0672	78.0000
22.0764	92.0000
22.0856	88.0000
22.0949	84.0000
22.1041	81.0000
22.1133	70.0000
22.1225	65.0000
22.1317	81.0000
22.1410	87.0000
22.1502	67.0000
22.1594	84.0000
22.1686	82.0000
22.1779	71.0000
22.1871	66.0000
22.1963	66.0000
22.2055	84.0000
22.2147	93.0000
22.2240	83.0000
22.2332	81.0000
22.2424	69.0000
22.2516	69.0000
22.2609	69.0000
22.2701	68.0000
22.2793	80.0000
22.2885	67.0000
22.2978	68.0000
22.3070	81.0000
22.3162	68.0000
22.3254	75.0000
22.3346	66.0000
22.3439	79.0000
22.3531	89.0000
22.3623	70.0000
22.3715	92.0000
22.3808	66.0000
22.3900	88.0000
22.3992	76.0000
22.4084	68.0000
22.4176	68.0000
22.4269	72.0000
22.4361	72.0000
22.4453	74.0000
22.4545	84.0000
22.4638	65.0000
22.4730	68.0000
22.4822	74.0000
22.4914	80.0000
22.5007	77.0000
22.5099	66.0000
22.5191	71.0000
22.5283	89.0000
22.5375	72.0000
22.5468	73.0000
22.5560	81.0000
22.5652	64.0000
22.5744	66.0000
22.5837	75.0000
22.5929	81.0000
22.6021	79.0000
22.6113	78.0000
22.6205	69.0000
22.6298	71.0000
22.6390	80.0000
22.6482	73.0000
22.6574	72.0000
22.6667	87.0000
22.6759	75.0000
22.6851	83.0000
22.6943	82.0000
22.7036	90.0000
22.7128	76.0000
22.7220	82.0000
22.7312	92.0000
22.7404	79.0000
22.7497	91.0000
22.7589	77.0000
22.7681	73.0000
22.7773	80.0000
22.7866	64.0000
22.7958	88.0000
22.8050	83.0000
22.8142	62.0000
22.8234	76.0000
22.8327	82.0000
22.8419	80.0000
22.8511	84.0000
22.8603	78.0000
22.8696	73.0000
22.8788	81.0000
22.8880	70.0000
22.8972	80.0000
22.9064	74.0000
22.9157	77.0000
22.9249	77.0000
22.9341	95.0000
22.9433	83.0000
22.9526	107.0000
22.9618	93.0000
22.9710	83.0000
22.9802	86.0000
22.9895	94.0000
22.9987	75.0000
23.0079	68.0000
23.0171	69.0000
23.0263	89.0000
23.0356	77.0000
23.0448	82.0000
23.0540	86.0000
23.0632	76.0000
23.0725	78.0000
23.0817	91.0000
23.0909	72.0000
23.1001	79.0000
23.1093	77.0000
23.1186	92.0000
23.1278	82.0000
23.1370	72.0000
23.1462	81.0000
23.1555	82.0000
23.1647	73.0000
23.1739	81.0000
23.1831	90.0000
23.1924	61.0000
23.2016	87.0000
23.2108	61.0000
23.2200	88.0000
23.2292	77.0000
23.2385	87.0000
23.2477	67.0000
23.2569	75.0000
23.2661	89.0000
23.2754	84.0000
23.2846	81.0000
23.2938	84.0000
23.3030	79.0000
23.3122	78.0000
23.3215	73.0000
23.3307	89.0000
23.3399	79.0000
23.3491	83.0000
23.3584	69.0000
23.3676	81.0000
23.3768	79.0000
23.3860	93.0000
23.3952	69.0000
23.4045	87.0000
23.4137	72.0000
23.4229	77.0000
23.4321	70.0000
23.4414	62.0000
23.4506	89.0000
23.4598	81.0000
23.4690	76.0000
23.4783	77.0000
23.4875	72.0000
23.4967	87.0000
23.5059	69.0000
23.5151	74.0000
23.5244	73.0000
23.5336	69.0000
23.5428	80.0000
23.5520	78.0000
23.5613	67.0000
23.5705	83.0000
23.5797	69.0000
23.5889	70.0000
23.5981	70.0000
23.6074	83.0000
23.6166	88.0000
23.6258	79.0000
23.6350	69.0000
23.6443	90.0000
23.6535	83.0000
23.6627	75.0000
23.6719	82.0000
23.6812	68.0000
23.6904	84.0000
23.6996	68.0000
23.7088	77.0000
23.7180	67.0000
23.7273	79.0000
23.7365	80.0000
23.7457	76.0000
23.7549	96.0000
23.7642	81.0000
23.7734	69.0000
23.7826	87.0000
23.7918	78.0000
23.8010	70.0000
23.8103	89.0000
23.8195	65.0000
23.8287	82.0000
23.8379	90.0000
23.8472	69.0000
23.8564	87.0000
23.8656	68.0000
23.8748	82.0000
23.8841	90.0000
23.8933	92.0000
23.9025	63.0000
23.9117	77.0000
23.9209	75.0000
23.9302	80.0000
23.9394	74.0000
23.9486	86.0000
23.9578	67.0000
23.9671	83.0000
23.9763	64.0000
23.9855	78.0000
23.9947	82.0000
24.0039	71.0000
24.0132	66.0000
24.0224	88.0000
24.0316	81.0000
24.0408	99.0000
24.0501	90.0000
24.0593	77.0000
24.0685	77.0000
24.0777	77.0000
24.0869	81.0000
24.0962	74.0000
24.1054	93.0000
24.1146	79.0000
24.1238	65.0000
24.1331	63.0000
24.1423	79.0000
24.1515	80.0000
24.1607	74.0000
24.1700	74.0000
24.1792	64.0000
24.1884	86.0000
24.1976	70.0000
24.2068	65.0000
24.2161	67.0000
24.2253	76.0000
24.2345	83.0000
24.2437	75.0000
24.2530	76.0000
24.2622	90.0000
24.2714	72.0000
24.2806	80.0000
24.2898	83.0000
24.2991	63.0000
24.3083	60.0000
24.3175	65.0000
24.3267	78.0000
24.3360	93.0000
24.3452	84.0000
24.3544	71.0000
24.3636	75.0000
24.3729	76.0000
24.3821	88.0000
24.3913	80.0000
24.4005	80.0000
24.4097	69.0000
24.4190	90.0000
24.4282	66.0000
24.4374	75.0000
24.4466	81.0000
24.4559	76.0000
24.4651	69.0000
24.4743	63.0000
24.4835	80.0000
24.4927	90.0000
24.5020	84.0000
24.5112	53.0000
24.5204	68.0000
24.5296	81.0000
24.5389	65.0000
24.5481	80.0000
24.5573	60.0000
24.5665	76.0000
24.5757	80.0000
24.5850	74.0000
24.5942	79.0000
24.6034	80.0000
24.6126	71.0000
24.6219	72.0000
24.6311	73.0000
24.6403	89.0000
24.6495	79.0000
24.6588	81.0000
24.6680	84.0000
24.6772	86.0000
24.6864	75.0000
24.6956	66.0000
24.7049	62.0000
24.7141	87.0000
24.7233	77.0000
24.7325	74.0000
24.7418	84.0000
24.7510	90.0000
24.7602	77.0000
24.7694	83.0000
24.7786	89.0000
24.7879	78.0000
24.7971	73.0000
24.8063	75.0000
24.8155	77.0000
24.8248	62.0000
24.8340	67.0000
24.8432	82.0000
24.8524	93.0000
24.8617	82.0000
24.8709	91.0000
24.8801	60.0000
24.8893	67.0000
24.8985	81.0000
24.9078	74.0000
24.9170	61.0000
24.9262	74.0000
24.9354	67.0000
24.9447	83.0000
24.9539	108.0000
24.9631	102.0000
24.9723	96.0000
24.9815	106.0000
24.9908	116.0000
25.0000	107.0000
25.0092	96.0000
25.0184	94.0000
25.0277	97.0000
25.0369	68.0000
25.0461	90.0000
25.0553	71.0000
25.0646	74.0000
25.0738	96.0000
25.0830	76.0000
25.0922	81.0000
25.1014	75.0000
25.1107	89.0000
25.1199	84.0000
25.1291	86.0000
25.1383	80.0000
25.1476	87.0000
25.1568	77.0000
25.1660	86.0000
25.1752	82.0000
25.1844	78.0000
25.1937	69.0000
25.2029	64.0000
25.2121	68.0000
25.2213	67.0000
25.2306	82.0000
25.2398	68.0000
25.2490	83.0000
25.2582	85.0000
25.2674	87.0000
25.2767	79.0000
25.2859	78.0000
25.2951	75.0000
25.3043	77.0000
25.3136	73.0000
25.3228	78.0000
25.3320	85.0000
25.3412	79.0000
25.3505	80.0000
25.3597	84.0000
25.3689	84.0000
25.3781	82.0000
25.3873	88.0000
25.3966	72.0000
25.4058	72.0000
25.4150	82.0000
25.4242	72.0000
25.4335	74.0000
25.4427	66.0000
25.4519	72.0000
25.4611	85.0000
25.4703	83.0000
25.4796	86.0000
25.4888	90.0000
25.4980	81.0000
25.5072	72.0000
25.5165	74.0000
25.5257	71.0000
25.5349	82.0000
25.5441	81.0000
25.5534	84.0000
25.5626	81.0000
25.5718	92.0000
25.5810	84.0000
25.5902	74.0000
25.5995	79.0000
25.6087	87.0000
25.6179	73.0000
25.6271	84.0000
25.6364	74.0000
25.6456	77.0000
25.6548	59.0000
25.6640	76.0000
25.6732	75.0000
25.6825	67.0000
25.6917	87.0000
25.7009	78.0000
25.7101	78.0000
25.7194	70.0000
25.7286	73.0000
25.7378	100.0000
25.7470	74.0000
25.7562	72.0000
25.7655	73.0000
25.7747	95.0000
25.7839	78.0000
25.7931	73.0000
25.8024	84.0000
25.8116	80.0000
25.8208	85.0000
25.8300	87.0000
25.8393	88.0000
25.8485	69.0000
25.8577	73.0000
25.8669	86.0000
25.8761	67.0000
25.8854	71.0000
25.8946	83.0000
25.9038	82.0000
25.9130	80.0000
25.9223	83.0000
25.9315	78.0000
25.9407	78.0000
25.9499	89.0000
25.9591	82.0000
25.9684	82.0000
25.9776	73.0000
25.9868	77.0000
25.9960	82.0000
26.0053	78.0000
26.0145	71.0000
26.0237	81.0000
26.0329	76.0000
26.0422	89.0000
26.0514	85.0000
26.0606	87.0000
26.0698	71.0000
26.0790	66.0000
26.0883	64.0000
26.0975	94.0000
26.1067	106.0000
26.1159	85.0000
26.1252	81.0000
26.1344	72.0000
26.1436	79.0000
26.1528	78.0000
26.1620	76.0000
26.1713	87.0000
26.1805	86.0000
26.1897	82.0000
26.1989	72.0000
26.2082	85.0000
26.2174	86.0000
26.2266	79.0000
26.2358	72.0000
26.2451	79.0000
26.2543	73.0000
26.2635	78.0000
26.2727	84.0000
26.2819	97.0000
26.2912	86.0000
26.3004	64.0000
26.3096	63.0000
26.3188	95.0000
26.3281	71.0000
26.3373	76.0000
26.3465	81.0000
26.3557	77.0000
26.3649	96.0000
26.3742	70.0000
26.3834	66.0000
26.3926	79.0000
26.4018	97.0000
26.4111	73.0000
26.4203	67.0000
26.4295	79.0000
26.4387	79.0000
26.4479	67.0000
26.4572	65.0000
26.4664	109.0000
26.4756	88.0000
26.4848	79.0000
26.4941	82.0000
26.5033	105.0000
26.5125	93.0000
26.5217	83.0000
26.5310	79.0000
26.5402	92.0000
26.5494	78.0000
26.5586	85.0000
26.5678	78.0000
26.5771	75.0000
26.5863	63.0000
26.5955	69.0000
26.6047	76.0000
26.6140	68.0000
26.6232	85.0000
26.6324	90.0000
26.6416	73.0000
26.6508	80.0000
26.6601	83.0000
26.6693	90.0000
26.6785	82.0000
26.6877	78.0000
26.6970	86.0000
26.7062	83.0000
26.7154	99.0000
26.7246	91.0000
26.7339	77.0000
26.7431	95.0000
26.7523	89.0000
26.7615	83.0000
26.7707	92.0000
26.7800	84.0000
26.7892	70.0000
26.7984	90.0000
26.8076	86.0000
26.8169	76.0000
26.8261	87.0000
26.8353	75.0000
26.8445	72.0000
26.8537	75.0000
26.8630	98.0000
26.8722	86.0000
26.8814	82.0000
26.8906	102.0000
26.8999	86.0000
26.9091	88.0000
26.9183	92.0000
26.9275	91.0000
26.9367	89.0000
26.9460	79.0000
26.9552	84.0000
26.9644	82.0000
26.9736	81.0000
26.9829	93.0000
26.9921	84.0000
27.0013	78.0000
27.0105	61.0000
27.0198	70.0000
27.0290	79.0000
27.0382	83.0000
27.0474	95.0000
27.0566	75.0000
27.0659	58.0000
27.0751	96.0000
27.0843	94.0000
27.0935	90.0000
27.1028	85.0000
27.1120	78.0000
27.1212	75.0000
27.1304	83.0000
27.1396	98.0000
27.1489	77.0000
27.1581	103.0000
27.1673	94.0000
27.1765	76.0000
27.1858	84.0000
27.1950	83.0000
27.2042	88.0000
27.2134	75.0000
27.2227	76.0000
27.2319	89.0000
27.2411	79.0000
27.2503	98.0000
27.2595	81.0000
27.2688	85.0000
27.2780	79.0000
27.2872	97.0000
27.2964	88.0000
27.3057	66.0000
27.3149	80.0000
27.3241	89.0000
27.3333	74.0000
27.3425	74.0000
27.3518	90.0000
27.3610	94.0000
27.3702	80.0000
27.3794	96.0000
27.3887	89.0000
27.3979	69.0000
27.4071	89.0000
27.4163	73.0000
27.4256	84.0000
27.4348	79.0000
27.4440	73.0000
27.4532	81.0000
27.4624	83.0000
27.4717	78.0000
27.4809	84.0000
27.4901	82.0000
27.4993	89.0000
27.5086	96.0000
27.5178	79.0000
27.5270	83.0000
27.5362	91.0000
27.5454	68.0000
27.5547	73.0000
27.5639	82.0000
27.5731	85.0000
27.5823	97.0000
27.5916	79.0000
27.6008	88.0000
27.6100	93.0000
27.6192	90.0000
27.6284	83.0000
27.6377	87.0000
27.6469	77.0000
27.6561	96.0000
27.6653	71.0000
27.6746	82.0000
27.6838	94.0000
27.6930	78.0000
27.7022	81.0000
27.7115	96.0000
27.7207	78.0000
27.7299	90.0000
27.7391	95.0000
27.7483	74.0000
27.7576	87.0000
27.7668	86.0000
27.7760	92.0000
27.7852	79.0000
27.7945	79.0000
27.8037	79.0000
27.8129	77.0000
27.8221	82.0000
27.8313	90.0000
27.8406	82.0000
27.8498	83.0000
27.8590	82.0000
27.8682	72.0000
27.8775	90.0000
27.8867	95.0000
27.8959	85.0000
27.9051	71.0000
27.9144	97.0000
27.9236	91.0000
27.9328	100.0000
27.9420	79.0000
27.9512	77.0000
27.9605	78.0000
27.9697	102.0000
27.9789	90.0000
27.9881	78.0000
27.9974	88.0000
28.0066	77.0000
28.0158	84.0000
28.0250	78.0000
28.0342	107.0000
28.0435	86.0000
28.0527	81.0000
28.0619	86.0000
28.0711	75.0000
28.0804	94.0000
28.0896	71.0000
28.0988	92.0000
28.1080	75.0000
28.1172	75.0000
28.1265	84.0000
28.1357	80.0000
28.1449	79.0000
28.1541	68.0000
28.1634	78.0000
28.1726	94.0000
28.1818	83.0000
28.1910	83.0000
28.2003	87.0000
28.2095	94.0000
28.2187	88.0000
28.2279	99.0000
28.2371	84.0000
28.2464	80.0000
28.2556	87.0000
28.2648	85.0000
28.2740	84.0000
28.2833	90.0000
28.2925	76.0000
28.3017	68.0000
28.3109	88.0000
28.3201	88.0000
28.3294	84.0000
28.3386	81.0000
28.3478	101.0000
28.3570	67.0000
28.3663	78.0000
28.3755	93.0000
28.3847	77.0000
28.3939	84.0000
28.4032	86.0000
28.4124	99.0000
28.4216	80.0000
28.4308	83.0000
28.4400	87.0000
28.4493	98.0000
28.4585	79.0000
28.4677	86.0000
28.4769	81.0000
28.4862	87.0000
28.4954	70.0000
28.5046	87.0000
28.5138	87.0000
28.5230	72.0000
28.5323	94.0000
28.5415	79.0000
28.5507	100.0000
28.5599	96.0000
28.5692	79.0000
28.5784	90.0000
28.5876	81.0000
28.5968	82.0000
28.6061	90.0000
28.6153	96.0000
28.6245	84.0000
28.6337	91.0000
28.6429	87.0000
28.6522	88.0000
28.6614	72.0000
28.6706	72.0000
28.6798	84.0000
28.6891	67.0000
28.6983	99.0000
28.7075	88.0000
28.7167	94.0000
28.7259	92.0000
28.7352	82.0000
28.7444	88.0000
28.7536	81.0000
28.7628	101.0000
28.7721	84.0000
28.7813	97.0000
28.7905	78.0000
28.7997	79.0000
28.8089	83.0000
28.8182	99.0000
28.8274	54.0000
28.8366	74.0000
28.8458	93.0000
28.8551	103.0000
28.8643	94.0000
28.8735	75.0000
28.8827	89.0000
28.8920	86.0000
28.9012	92.0000
28.9104	81.0000
28.9196	95.0000
28.9288	80.0000
28.9381	98.0000
28.9473	85.0000
28.9565	86.0000
28.9657	79.0000
28.9750	89.0000
28.9842	88.0000
28.9934	82.0000
29.0026	92.0000
29.0118	84.0000
29.0211	79.0000
29.0303	77.0000
29.0395	80.0000
29.0487	95.0000
29.0580	103.0000
29.0672	93.0000
29.0764	83.0000
29.0856	104.0000
29.0949	84.0000
29.1041	81.0000
29.1133	91.0000
29.1225	88.0000
29.1317	83.0000
29.1410	82.0000
29.1502	82.0000
29.1594	88.0000
29.1686	95.0000
29.1779	77.0000
29.1871	78.0000
29.1963	73.0000
29.2055	82.0000
29.2147	93.0000
29.2240	83.0000
29.2332	92.0000
29.2424	80.0000
29.2516	85.0000
29.2609	93.0000
29.2701	76.0000
29.2793	73.0000
29.2885	87.0000
29.2977	92.0000
29.3070	92.0000
29.3162	81.0000
29.3254	84.0000
29.3346	86.0000
29.3439	85.0000
29.3531	84.0000
29.3623	81.0000
29.3715	90.0000
29.3808	89.0000
29.3900	90.0000
29.3992	91.0000
29.4084	102.0000
29.4176	75.0000
29.4269	86.0000
29.4361	81.0000
29.4453	85.0000
29.4545	86.0000
29.4638	82.0000
29.4730	91.0000
29.4822	81.0000
29.4914	76.0000
29.5006	95.0000
29.5099	84.0000
29.5191	67.0000
29.5283	82.0000
29.5375	75.0000
29.5468	78.0000
29.5560	99.0000
29.5652	82.0000
29.5744	80.0000
29.5837	100.0000
29.5929	82.0000
29.6021	94.0000
29.6113	73.0000
29.6205	70.0000
29.6298	89.0000
29.6390	99.0000
29.6482	89.0000
29.6574	88.0000
29.6667	108.0000
29.6759	98.0000
29.6851	95.0000
29.6943	99.0000
29.7035	96.0000
29.7128	79.0000
29.7220	79.0000
29.7312	95.0000
29.7404	89.0000
29.7497	90.0000
29.7589	77.0000
29.7681	93.0000
29.7773	89.0000
29.7866	99.0000
29.7958	84.0000
29.8050	97.0000
29.8142	72.0000
29.8234	74.0000
29.8327	81.0000
29.8419	91.0000
29.8511	84.0000
29.8603	95.0000
29.8696	80.0000
29.8788	75.0000
29.8880	100.0000
29.8972	82.0000
29.9064	91.0000
29.9157	90.0000
29.9249	73.0000
29.9341	78.0000
29.9433	84.0000
29.9526	85.0000
29.9618	86.0000
29.9710	105.0000
29.9802	101.0000
29.9894	77.0000
29.9987	99.0000
30.0079	75.0000
30.0171	92.0000
30.0263	88.0000
30.0356	96.0000
30.0448	92.0000
30.0540	96.0000
30.0632	89.0000
30.0725	83.0000
30.0817	81.0000
30.0909	72.0000
30.1001	89.0000
30.1093	94.0000
30.1186	91.0000
30.1278	87.0000
30.1370	74.0000
30.1462	81.0000
30.1555	84.0000
30.1647	72.0000
30.1739	87.0000
30.1831	85.0000
30.1923	78.0000
30.2016	88.0000
30.2108	90.0000
30.2200	78.0000
30.2292	80.0000
30.2385	79.0000
30.2477	88.0000
30.2569	84.0000
30.2661	82.0000
30.2754	92.0000
30.2846	84.0000
30.2938	82.0000
30.3030	90.0000
30.3122	91.0000
30.3215	94.0000
30.3307	71.0000
30.3399	86.0000
30.3491	83.0000
30.3584	86.0000
30.3676	88.0000
30.3768	105.0000
30.3860	86.0000
30.3952	79.0000
30.4045	89.0000
30.4137	79.0000
30.4229	101.0000
30.4321	78.0000
30.4414	67.0000
30.4506	77.0000
30.4598	85.0000
30.4690	90.0000
30.4782	92.0000
30.4875	83.0000
30.4967	76.0000
30.5059	98.0000
30.5151	88.0000
30.5244	80.0000
30.5336	71.0000
30.5428	90.0000
30.5520	79.0000
30.5613	72.0000
30.5705	89.0000
30.5797	79.0000
30.5889	89.0000
30.5981	96.0000
30.6074	98.0000
30.6166	68.0000
30.6258	80.0000
30.6350	83.0000
30.6443	90.0000
30.6535	83.0000
30.6627	93.0000
30.6719	74.0000
30.6811	73.0000
30.6904	83.0000
30.6996	95.0000
30.7088	72.0000
30.7180	99.0000
30.7273	83.0000
30.7365	100.0000
30.7457	86.0000
30.7549	80.0000
30.7642	92.0000
30.7734	79.0000
30.7826	86.0000
30.7918	90.0000
30.8010	95.0000
30.8103	80.0000
30.8195	95.0000
30.8287	84.0000
30.8379	75.0000
30.8472	92.0000
30.8564	80.0000
30.8656	102.0000
30.8748	85.0000
30.8840	100.0000
30.8933	85.0000
30.9025	80.0000
30.9117	92.0000
30.9209	100.0000
30.9302	84.0000
30.9394	91.0000
30.9486	86.0000
30.9578	93.0000
30.9671	98.0000
30.9763	77.0000
30.9855	77.0000
30.9947	87.0000
31.0039	94.0000
31.0132	81.0000
31.0224	79.0000
31.0316	83.0000
31.0408	79.0000
31.0501	96.0000
31.0593	88.0000
31.0685	76.0000
31.0777	86.0000
31.0869	82.0000
31.0962	77.0000
31.1054	82.0000
31.1146	79.0000
31.1238	88.0000
31.1331	68.0000
31.1423	87.0000
31.1515	89.0000
31.1607	82.0000
31.1699	76.0000
31.1792	101.0000
31.1884	79.0000
31.1976	97.0000
31.2068	81.0000
31.2161	92.0000
31.2253	87.0000
31.2345	77.0000
31.2437	83.0000
31.2530	90.0000
31.2622	70.0000
31.2714	77.0000
31.2806	89.0000
31.2898	94.0000
31.2991	85.0000
31.3083	74.0000
31.3175	88.0000
31.3267	93.0000
31.3360	68.0000
31.3452	95.0000
31.3544	81.0000
31.3636	102.0000
31.3728	100.0000
31.3821	88.0000
31.3913	69.0000
31.4005	78.0000
31.4097	67.0000
31.4190	84.0000
31.4282	88.0000
31.4374	83.0000
31.4466	93.0000
31.4559	79.0000
31.4651	84.0000
31.4743	85.0000
31.4835	88.0000
31.4927	80.0000
31.5020	82.0000
31.5112	75.0000
31.5204	91.0000
31.5296	85.0000
31.5389	78.0000
31.5481	88.0000
31.5573	77.0000
31.5665	89.0000
31.5757	81.0000
31.5850	74.0000
31.5942	92.0000
31.6034	69.0000
31.6126	90.0000
31.6219	83.0000
31.6311	89.0000
31.6403	99.0000
31.6495	74.0000
31.6587	68.0000
31.6680	82.0000
31.6772	74.0000
31.6864	79.0000
31.6956	87.0000
31.7049	102.0000
31.7141	89.0000
31.7233	84.0000
31.7325	77.0000
31.7418	96.0000
31.7510	91.0000
31.7602	85.0000
31.7694	87.0000
31.7786	88.0000
31.7879	86.0000
31.7971	94.0000
31.8063	66.0000
31.8155	80.0000
31.8248	98.0000
31.8340	86.0000
31.8432	83.0000
31.8524	86.0000
31.8616	72.0000
31.8709	90.0000
31.8801	76.0000
31.8893	67.0000
31.8985	69.0000
31.9078	87.0000
31.9170	98.0000
31.9262	77.0000
31.9354	92.0000
31.9447	76.0000
31.9539	91.0000
31.9631	80.0000
31.9723	83.0000
31.9815	92.0000
31.9908	96.0000
32.0000	96.0000
32.0092	67.0000
32.0184	90.0000
32.0277	83.0000
32.0369	85.0000
32.0461	90.0000
32.0553	78.0000
32.0645	94.0000
32.0738	117.0000
32.0830	87.0000
32.0922	95.0000
32.1014	102.0000
32.1107	90.0000
32.1199	81.0000
32.1291	68.0000
32.1383	76.0000
32.1476	92.0000
32.1568	84.0000
32.1660	99.0000
32.1752	89.0000
32.1844	73.0000
32.1937	85.0000
32.2029	80.0000
32.2121	73.0000
32.2213	105.0000
32.2306	74.0000
32.2398	76.0000
32.2490	88.0000
32.2582	81.0000
32.2674	82.0000
32.2767	90.0000
32.2859	88.0000
32.2951	94.0000
32.3043	82.0000
32.3136	77.0000
32.3228	95.0000
32.3320	69.0000
32.3412	82.0000
32.3504	88.0000
32.3597	96.0000
32.3689	88.0000
32.3781	93.0000
32.3873	77.0000
32.3966	88.0000
32.4058	83.0000
32.4150	81.0000
32.4242	73.0000
32.4335	75.0000
32.4427	87.0000
32.4519	86.0000
32.4611	83.0000
32.4703	93.0000
32.4796	89.0000
32.4888	77.0000
32.4980	96.0000
32.5072	81.0000
32.5165	81.0000
32.5257	73.0000
32.5349	97.0000
32.5441	89.0000
32.5533	82.0000
32.5626	107.0000
32.5718	88.0000
32.5810	91.0000
32.5902	91.0000
32.5995	87.0000
32.6087	92.0000
32.6179	83.0000
32.6271	98.0000
32.6364	77.0000
32.6456	74.0000
32.6548	73.0000
32.6640	88.0000
32.6732	79.0000
32.6825	81.0000
32.6917	76.0000
32.7009	90.0000
32.7101	76.0000
32.7194	79.0000
32.7286	84.0000
32.7378	83.0000
32.7470	78.0000
32.7562	98.0000
32.7655	93.0000
32.7747	91.0000
32.7839	87.0000
32.7931	68.0000
32.8024	76.0000
32.8116	82.0000
32.8208	79.0000
32.8300	88.0000
32.8392	76.0000
32.8485	101.0000
32.8577	97.0000
32.8669	99.0000
32.8761	82.0000
32.8854	89.0000
32.8946	65.0000
32.9038	70.0000
32.9130	87.0000
32.9223	77.0000
32.9315	84.0000
32.9407	85.0000
32.9499	92.0000
32.9591	86.0000
32.9684	89.0000
32.9776	90.0000
32.9868	103.0000
32.9960	92.0000
33.0053	89.0000
33.0145	86.0000
33.0237	102.0000
33.0329	98.0000
33.0421	95.0000
33.0514	128.0000
33.0606	170.0000
33.0698	177.0000
33.0790	219.0000
33.0883	230.0000
33.0975	172.0000
33.1067	119.0000
33.1159	144.0000
33.1252	98.0000
33.1344	84.0000
33.1436	93.0000
33.1528	94.0000
33.1620	96.0000
33.1713	95.0000
33.1805	96.0000
33.1897	82.0000
33.1989	80.0000
33.2082	90.0000
33.2174	92.0000
33.2266	87.0000
33.2358	113.0000
33.2450	99.0000
33.2543	119.0000
33.2635	138.0000
33.2727	143.0000
33.2819	142.0000
33.2912	134.0000
33.3004	133.0000
33.3096	93.0000
33.3188	102.0000
33.3281	100.0000
33.3373	97.0000
33.3465	85.0000
33.3557	96.0000
33.3649	73.0000
33.3742	94.0000
33.3834	75.0000
33.3926	86.0000
33.4018	80.0000
33.4111	83.0000
33.4203	65.0000
33.4295	88.0000
33.4387	81.0000
33.4479	101.0000
33.4572	79.0000
33.4664	83.0000
33.4756	87.0000
33.4848	82.0000
33.4941	96.0000
33.5033	83.0000
33.5125	82.0000
33.5217	75.0000
33.5309	86.0000
33.5402	77.0000
33.5494	73.0000
33.5586	100.0000
33.5678	97.0000
33.5771	75.0000
33.5863	76.0000
33.5955	78.0000
33.6047	90.0000
33.6140	95.0000
33.6232	81.0000
33.6324	75.0000
33.6416	78.0000
33.6508	92.0000
33.6601	102.0000
33.6693	79.0000
33.6785	98.0000
33.6877	86.0000
33.6970	86.0000
33.7062	75.0000
33.7154	77.0000
33.7246	89.0000
33.7338	71.0000
33.7431	97.0000
33.7523	68.0000
33.7615	88.0000
33.7707	78.0000
33.7800	81.0000
33.7892	92.0000
33.7984	81.0000
33.8076	74.0000
33.8169	84.0000
33.8261	75.0000
33.8353	82.0000
33.8445	79.0000
33.8537	88.0000
33.8630	94.0000
33.8722	89.0000
33.8814	91.0000
33.8906	89.0000
33.8999	102.0000
33.9091	97.0000
33.9183	72.0000
33.9275	81.0000
33.9367	91.0000
33.9460	80.0000
33.9552	72.0000
33.9644	78.0000
33.9736	80.0000
33.9829	77.0000
33.9921	82.0000
34.0013	78.0000
34.0105	82.0000
34.0197	93.0000
34.0290	82.0000
34.0382	82.0000
34.0474	84.0000
34.0566	83.0000
34.0659	88.0000
34.0751	92.0000
34.0843	79.0000
34.0935	86.0000
34.1028	82.0000
34.1120	95.0000
34.1212	79.0000
34.1304	93.0000
34.1396	77.0000
34.1489	89.0000
34.1581	71.0000
34.1673	75.0000
34.1765	83.0000
34.1858	87.0000
34.1950	80.0000
34.2042	78.0000
34.2134	86.0000
34.2226	86.0000
34.2319	68.0000
34.2411	96.0000
34.2503	84.0000
34.2595	95.0000
34.2688	82.0000
34.2780	75.0000
34.2872	64.0000
34.2964	76.0000
34.3057	80.0000
34.3149	79.0000
34.3241	73.0000
34.3333	80.0000
34.3425	108.0000
34.3518	90.0000
34.3610	79.0000
34.3702	77.0000
34.3794	69.0000
34.3887	97.0000
34.3979	98.0000
34.4071	74.0000
34.4163	68.0000
34.4255	84.0000
34.4348	81.0000
34.4440	75.0000
34.4532	73.0000
34.4624	84.0000
34.4717	73.0000
34.4809	74.0000
34.4901	60.0000
34.4993	74.0000
34.5086	75.0000
34.5178	81.0000
34.5270	77.0000
34.5362	62.0000
34.5454	73.0000
34.5547	81.0000
34.5639	83.0000
34.5731	86.0000
34.5823	76.0000
34.5916	75.0000
34.6008	71.0000
34.6100	67.0000
34.6192	75.0000
34.6284	77.0000
34.6377	87.0000
34.6469	81.0000
34.6561	95.0000
34.6653	85.0000
34.6746	79.0000
34.6838	76.0000
34.6930	71.0000
34.7022	82.0000
34.7114	74.0000
34.7207	81.0000
34.7299	90.0000
34.7391	83.0000
34.7483	86.0000
34.7576	80.0000
34.7668	68.0000
34.7760	74.0000
34.7852	77.0000
34.7945	69.0000
34.8037	87.0000
34.8129	68.0000
34.8221	74.0000
34.8313	73.0000
34.8406	78.0000
34.8498	68.0000
34.8590	71.0000
34.8682	58.0000
34.8775	70.0000
34.8867	61.0000
34.8959	71.0000
34.9051	75.0000
34.9143	64.0000
34.9236	72.0000
34.9328	78.0000
34.9420	82.0000
34.9512	86.0000
34.9605	85.0000
34.9697	62.0000
34.9789	83.0000
34.9881	77.0000
34.9974	72.0000
35.0066	80.0000
35.0158	81.0000
35.0250	71.0000
35.0342	86.0000
35.0435	65.0000
35.0527	78.0000
35.0619	81.0000
35.0711	71.0000
35.0804	77.0000
35.0896	65.0000
35.0988	65.0000
35.1080	75.0000
35.1172	71.0000
35.1265	71.0000
35.1357	69.0000
35.1449	66.0000
35.1541	69.0000
35.1634	87.0000
35.1726	70.0000
35.1818	73.0000
35.1910	87.0000
35.2002	83.0000
35.2095	67.0000
35.2187	71.0000
35.2279	70.0000
35.2371	58.0000
35.2464	60.0000
35.2556	74.0000
35.2648	78.0000
35.2740	65.0000
35.2833	68.0000
35.2925	60.0000
35.3017	71.0000
35.3109	73.0000
35.3201	71.0000
35.3294	80.0000
35.3386	87.0000
35.3478	63.0000
35.3570	63.0000
35.3663	58.0000
35.3755	63.0000
35.3847	70.0000
35.3939	73.0000
35.4031	63.0000
35.4124	71.0000
35.4216	64.0000
35.4308	83.0000
35.4400	70.0000
35.4493	68.0000
35.4585	69.0000
35.4677	65.0000
35.4769	74.0000
35.4862	65.0000
35.4954	66.0000
35.5046	80.0000
35.5138	77.0000
35.5230	61.0000
35.5323	62.0000
35.5415	75.0000
35.5507	67.0000
35.5599	76.0000
35.5692	58.0000
35.5784	68.0000
35.5876	76.0000
35.5968	68.0000
35.6060	62.0000
35.6153	65.0000
35.6245	62.0000
35.6337	66.0000
35.6429	73.0000
35.6522	73.0000
35.6614	72.0000
35.6706	67.0000
35.6798	55.0000
35.6891	69.0000
35.6983	63.0000
35.7075	56.0000
35.7167	63.0000
35.7259	61.0000
35.7352	63.0000
35.7444	59.0000
35.7536	69.0000
35.7628	65.0000
35.7721	48.0000
35.7813	69.0000
35.7905	60.0000
35.7997	68.0000
35.8089	65.0000
35.8182	70.0000
35.8274	73.0000
35.8366	62.0000
35.8458	56.0000
35.8551	53.0000
35.8643	61.0000
35.8735	66.0000
35.8827	78.0000
35.8919	61.0000
35.9012	65.0000
35.9104	57.0000
35.9196	64.0000
35.9288	63.0000
35.9381	64.0000
35.9473	67.0000
35.9565	74.0000
35.9657	63.0000
35.9750	63.0000
35.9842	62.0000
35.9934	54.0000
36.0026	55.0000
36.0118	68.0000
36.0211	62.0000
36.0303	63.0000
36.0395	56.0000
36.0487	50.0000
36.0580	55.0000
36.0672	69.0000
36.0764	68.0000
36.0856	67.0000
36.0948	52.0000
36.1041	61.0000
36.1133	48.0000
36.1225	66.0000
36.1317	50.0000
36.1410	53.0000
36.1502	50.0000
36.1594	57.0000
36.1686	64.0000
36.1779	59.0000
36.1871	73.0000
36.1963	48.0000
36.2055	46.0000
36.2147	66.0000
36.2240	59.0000
36.2332	71.0000
36.2424	54.0000
36.2516	60.0000
36.2609	60.0000
36.2701	73.0000
36.2793	52.0000
36.2885	62.0000
36.2977	66.0000
36.3070	71.0000
36.3162	68.0000
36.3254	69.0000
36.3346	63.0000
36.3439	69.0000
36.3531	53.0000
36.3623	60.0000
36.3715	52.0000
36.3807	78.0000
36.3900	58.0000
36.3992	68.0000
36.4084	64.0000
36.4176	54.0000
36.4269	57.0000
36.4361	60.0000
36.4453	45.0000
36.4545	48.0000
36.4638	54.0000
36.4730	58.0000
36.4822	43.0000
36.4914	56.0000
36.5006	45.0000
36.5099	46.0000
36.5191	49.0000
36.5283	57.0000
36.5375	71.0000
36.5468	56.0000
36.5560	53.0000
36.5652	68.0000
36.5744	57.0000
36.5836	60.0000
36.5929	66.0000
36.6021	59.0000
36.6113	66.0000
36.6205	55.0000
36.6298	68.0000
36.6390	71.0000
36.6482	51.0000
36.6574	58.0000
36.6667	54.0000
36.6759	66.0000
36.6851	48.0000
36.6943	52.0000
36.7035	52.0000
36.7128	52.0000
36.7220	48.0000
36.7312	62.0000
36.7404	54.0000
36.7497	52.0000
36.7589	43.0000
36.7681	59.0000
36.7773	66.0000
36.7865	47.0000
36.7958	60.0000
36.8050	50.0000
36.8142	63.0000
36.8234	56.0000
36.8327	56.0000
36.8419	62.0000
36.8511	50.0000
36.8603	58.0000
36.8696	60.0000
36.8788	47.0000
36.8880	55.0000
36.8972	62.0000
36.9064	66.0000
36.9157	54.0000
36.9249	63.0000
36.9341	62.0000
36.9433	44.0000
36.9526	47.0000
36.9618	72.0000
36.9710	47.0000
36.9802	59.0000
36.9894	41.0000
36.9987	53.0000
37.0079	48.0000
37.0171	49.0000
37.0263	52.0000
37.0356	59.0000
37.0448	44.0000
37.0540	56.0000
37.0632	50.0000
37.0724	51.0000
37.0817	45.0000
37.0909	50.0000
37.1001	56.0000
37.1093	51.0000
37.1186	59.0000
37.1278	54.0000
37.1370	53.0000
37.1462	63.0000
37.1555	68.0000
37.1647	59.0000
37.1739	56.0000
37.1831	55.0000
37.1923	51.0000
37.2016	58.0000
37.2108	69.0000
37.2200	48.0000
37.2292	56.0000
37.2385	54.0000
37.2477	67.0000
37.2569	60.0000
37.2661	76.0000
37.2753	105.0000
37.2846	132.0000
37.2938	202.0000
37.3030	291.0000
37.3122	406.0000
37.3215	442.0000
37.3307	372.0000
37.3399	246.0000
37.3491	158.0000
37.3584	114.0000
37.3676	88.0000
37.3768	74.0000
37.3860	61.0000
37.3952	65.0000
37.4045	49.0000
37.4137	44.0000
37.4229	49.0000
37.4321	52.0000
37.4414	51.0000
37.4506	65.0000
37.4598	49.0000
37.4690	45.0000
37.4782	65.0000
37.4875	70.0000
37.4967	62.0000
37.5059	85.0000
37.5151	111.0000
37.5244	120.0000
37.5336	174.0000
37.5428	225.0000
37.5520	238.0000
37.5612	197.0000
37.5705	140.0000
37.5797	95.0000
37.5889	74.0000
37.5981	66.0000
37.6074	47.0000
37.6166	62.0000
37.6258	55.0000
37.6350	51.0000
37.6443	62.0000
37.6535	54.0000
37.6627	55.0000
37.6719	61.0000
37.6811	52.0000
37.6904	44.0000
37.6996	49.0000
37.7088	42.0000
37.7180	53.0000
37.7273	57.0000
37.7365	40.0000
37.7457	46.0000
37.7549	46.0000
37.7641	48.0000
37.7734	59.0000
37.7826	41.0000
37.7918	58.0000
37.8010	59.0000
37.8103	51.0000
37.8195	48.0000
37.8287	49.0000
37.8379	54.0000
37.8472	39.0000
37.8564	44.0000
37.8656	53.0000
37.8748	55.0000
37.8840	43.0000
37.8933	46.0000
37.9025	53.0000
37.9117	50.0000
37.9209	45.0000
37.9302	51.0000
37.9394	40.0000
37.9486	55.0000
37.9578	44.0000
37.9670	49.0000
37.9763	67.0000
37.9855	42.0000
37.9947	59.0000
38.0039	47.0000
38.0132	51.0000
38.0224	43.0000
38.0316	53.0000
38.0408	48.0000
38.0501	52.0000
38.0593	44.0000
38.0685	52.0000
38.0777	43.0000
38.0869	58.0000
38.0962	50.0000
38.1054	62.0000
38.1146	53.0000
38.1238	48.0000
38.1331	60.0000
38.1423	44.0000
38.1515	37.0000
38.1607	54.0000
38.1699	42.0000
38.1792	51.0000
38.1884	41.0000
38.1976	51.0000
38.2068	45.0000
38.2161	56.0000
38.2253	46.0000
38.2345	48.0000
38.2437	51.0000
38.2529	51.0000
38.2622	50.0000
38.2714	43.0000
38.2806	43.0000
38.2898	38.0000
38.2991	45.0000
38.3083	48.0000
38.3175	53.0000
38.3267	61.0000
38.3360	53.0000
38.3452	42.0000
38.3544	36.0000
38.3636	51.0000
38.3728	40.0000
38.3821	41.0000
38.3913	45.0000
38.4005	36.0000
38.4097	44.0000
38.4190	52.0000
38.4282	48.0000
38.4374	39.0000
38.4466	31.0000
38.4558	42.0000
38.4651	48.0000
38.4743	56.0000
38.4835	47.0000
38.4927	50.0000
38.5020	51.0000
38.5112	53.0000
38.5204	53.0000
38.5296	28.0000
38.5389	53.0000
38.5481	48.0000
38.5573	52.0000
38.5665	50.0000
38.5757	52.0000
38.5850	46.0000
38.5942	41.0000
38.6034	49.0000
38.6126	60.0000
38.6219	54.0000
38.6311	53.0000
38.6403	39.0000
38.6495	36.0000
38.6587	46.0000
38.6680	56.0000
38.6772	43.0000
38.6864	45.0000
38.6956	49.0000
38.7049	48.0000
38.7141	35.0000
38.7233	49.0000
38.7325	37.0000
38.7417	48.0000
38.7510	48.0000
38.7602	36.0000
38.7694	59.0000
38.7786	44.0000
38.7879	35.0000
38.7971	47.0000
38.8063	39.0000
38.8155	51.0000
38.8248	25.0000
38.8340	53.0000
38.8432	55.0000
38.8524	48.0000
38.8616	57.0000
38.8709	36.0000
38.8801	37.0000
38.8893	42.0000
38.8985	36.0000
38.9078	49.0000
38.9170	42.0000
38.9262	56.0000
38.9354	42.0000
38.9446	42.0000
38.9539	41.0000
38.9631	45.0000
38.9723	51.0000
38.9815	39.0000
38.9908	35.0000
39.0000	50.0000
39.0092	35.0000
39.0184	36.0000
39.0277	39.0000
39.0369	31.0000
39.0461	51.0000
39.0553	40.0000
39.0645	47.0000
39.0738	63.0000
39.0830	49.0000
39.0922	52.0000
39.1014	53.0000
39.1107	42.0000
39.1199	42.0000
39.1291	43.0000
39.1383	47.0000
39.1475	37.0000
39.1568	38.0000
39.1660	39.0000
39.1752	60.0000
39.1844	38.0000
39.1937	37.0000
39.2029	41.0000
39.2121	40.0000
39.2213	37.0000
39.2306	51.0000
39.2398	43.0000
39.2490	44.0000
39.2582	48.0000
39.2674	50.0000
39.2767	54.0000
39.2859	39.0000
39.2951	52.0000
39.3043	65.0000
39.3136	50.0000
39.3228	30.0000
39.3320	53.0000
39.3412	50.0000
39.3504	45.0000
39.3597	44.0000
39.3689	47.0000
39.3781	36.0000
39.3873	52.0000
39.3966	46.0000
39.4058	46.0000
39.4150	35.0000
39.4242	58.0000
39.4334	28.0000
39.4427	47.0000
39.4519	48.0000
39.4611	40.0000
39.4703	52.0000
39.4796	42.0000
39.4888	34.0000
39.4980	38.0000
39.5072	34.0000
39.5165	39.0000
39.5257	47.0000
39.5349	40.0000
39.5441	47.0000
39.5533	39.0000
39.5626	32.0000
39.5718	45.0000
39.5810	46.0000
39.5902	32.0000
39.5995	36.0000
39.6087	40.0000
39.6179	50.0000
39.6271	45.0000
39.6363	53.0000
39.6456	35.0000
39.6548	37.0000
39.6640	42.0000
39.6732	49.0000
39.6825	39.0000
39.6917	51.0000
39.7009	50.0000
39.7101	38.0000
39.7194	39.0000
39.7286	37.0000
39.7378	35.0000
39.7470	57.0000
39.7562	61.0000
39.7655	47.0000
39.7747	34.0000
39.7839	32.0000
39.7931	38.0000
39.8024	44.0000
39.8116	45.0000
39.8208	50.0000
39.8300	41.0000
39.8392	50.0000
39.8485	35.0000
39.8577	39.0000
39.8669	49.0000
39.8761	52.0000
39.8854	49.0000
39.8946	46.0000
39.9038	40.0000
39.9130	36.0000
39.9222	34.0000
39.9315	42.0000
39.9407	57.0000
39.9499	43.0000
39.9591	35.0000
39.9684	40.0000
39.9776	47.0000
39.9868	47.0000
39.9960	41.0000
40.0053	43.0000
40.0145	45.0000
40.0237	38.0000
40.0329	40.0000
40.0421	43.0000
40.0514	41.0000
40.0606	47.0000
40.0698	37.0000
40.0790	58.0000
40.0883	38.0000
40.0975	46.0000
40.1067	48.0000
40.1159	53.0000
40.1251	55.0000
40.1344	38.0000
40.1436	40.0000
40.1528	34.0000
40.1620	52.0000
40.1713	30.0000
40.1805	46.0000
40.1897	49.0000
40.1989	36.0000
40.2082	50.0000
40.2174	39.0000
40.2266	34.0000
40.2358	59.0000
40.2450	25.0000
40.2543	38.0000
40.2635	42.0000
40.2727	44.0000
40.2819	34.0000
40.2912	36.0000
40.3004	42.0000
40.3096	38.0000
40.3188	39.0000
40.3280	51.0000
40.3373	43.0000
40.3465	36.0000
40.3557	46.0000
40.3649	46.0000
40.3742	44.0000
40.3834	42.0000
40.3926	44.0000
40.4018	40.0000
40.4111	35.0000
40.4203	44.0000
40.4295	37.0000
40.4387	35.0000
40.4479	46.0000
40.4572	48.0000
40.4664	38.0000
40.4756	41.0000
40.4848	41.0000
40.4941	40.0000
40.5033	46.0000
40.5125	44.0000
40.5217	41.0000
40.5309	41.0000
40.5402	50.0000
40.5494	47.0000
40.5586	41.0000
40.5678	53.0000
40.5771	45.0000
40.5863	48.0000
40.5955	31.0000
40.6047	57.0000
40.6139	41.0000
40.6232	44.0000
40.6324	52.0000
40.6416	44.0000
40.6508	45.0000
40.6601	46.0000
40.6693	42.0000
40.6785	61.0000
40.6877	36.0000
40.6970	36.0000
40.7062	44.0000
40.7154	27.0000
40.7246	28.0000
40.7338	48.0000
40.7431	43.0000
40.7523	40.0000
40.7615	53.0000
40.7707	46.0000
40.7800	22.0000
40.7892	35.0000
40.7984	57.0000
40.8076	43.0000
40.8168	30.0000
40.8261	54.0000
40.8353	30.0000
40.8445	42.0000
40.8537	41.0000
40.8630	49.0000
40.8722	54.0000
40.8814	42.0000
40.8906	54.0000
40.8999	34.0000
40.9091	40.0000
40.9183	38.0000
40.9275	48.0000
40.9367	38.0000
40.9460	66.0000
40.9552	59.0000
40.9644	48.0000
40.9736	38.0000
40.9829	46.0000
40.9921	39.0000
41.0013	50.0000
41.0105	41.0000
41.0197	44.0000
41.0290	48.0000
41.0382	52.0000
41.0474	45.0000
41.0566	52.0000
41.0659	38.0000
41.0751	43.0000
41.0843	53.0000
41.0935	39.0000
41.1027	33.0000
41.1120	42.0000
41.1212	41.0000
41.1304	58.0000
41.1396	49.0000
41.1489	49.0000
41.1581	44.0000
41.1673	42.0000
41.1765	46.0000
41.1858	50.0000
41.1950	42.0000
41.2042	42.0000
41.2134	47.0000
41.2226	49.0000
41.2319	36.0000
41.2411	49.0000
41.2503	50.0000
41.2595	41.0000
41.2688	50.0000
41.2780	38.0000
41.2872	35.0000
41.2964	45.0000
41.3056	44.0000
41.3149	44.0000
41.3241	54.0000
41.3333	43.0000
41.3425	47.0000
41.3518	45.0000
41.3610	40.0000
41.3702	39.0000
41.3794	29.0000
41.3887	34.0000
41.3979	46.0000
41.4071	48.0000
41.4163	40.0000
41.4255	43.0000
41.4348	48.0000
41.4440	48.0000
41.4532	38.0000
41.4624	46.0000
41.4717	40.0000
41.4809	35.0000
41.4901	37.0000
41.4993	51.0000
41.5085	35.0000
41.5178	38.0000
41.5270	47.0000
41.5362	29.0000
41.5454	55.0000
41.5547	40.0000
41.5639	45.0000
41.5731	51.0000
41.5823	39.0000
41.5915	58.0000
41.6008	33.0000
41.6100	33.0000
41.6192	43.0000
41.6284	56.0000
41.6377	34.0000
41.6469	45.0000
41.6561	51.0000
41.6653	39.0000
41.6746	50.0000
41.6838	49.0000
41.6930	45.0000
41.7022	48.0000
41.7114	38.0000
41.7207	39.0000
41.7299	28.0000
41.7391	31.0000
41.7483	45.0000
41.7576	36.0000
41.7668	56.0000
41.7760	51.0000
41.7852	43.0000
41.7944	47.0000
41.8037	42.0000
41.8129	52.0000
41.8221	44.0000
41.8313	54.0000
41.8406	63.0000
41.8498	45.0000
41.8590	39.0000
41.8682	36.0000
41.8775	35.0000
41.8867	48.0000
41.8959	35.0000
41.9051	25.0000
41.9143	46.0000
41.9236	39.0000
41.9328	39.0000
41.9420	40.0000
41.9512	45.0000
41.9605	35.0000
41.9697	52.0000
41.9789	46.0000
41.9881	40.0000
41.9973	48.0000
42.0066	50.0000
42.0158	35.0000
42.0250	45.0000
42.0342	36.0000
42.0435	41.0000
42.0527	41.0000
42.0619	43.0000
42.0711	36.0000
42.0804	42.0000
42.0896	43.0000
42.0988	38.0000
42.1080	37.0000
42.1172	57.0000
42.1265	35.0000
42.1357	52.0000
42.1449	42.0000
42.1541	28.0000
42.1634	44.0000
42.1726	44.0000
42.1818	52.0000
42.1910	44.0000
42.2002	44.0000
42.2095	46.0000
42.2187	41.0000
42.2279	34.0000
42.2371	44.0000
42.2464	42.0000
42.2556	47.0000
42.2648	38.0000
42.2740	45.0000
42.2832	38.0000
42.2925	39.0000
42.3017	41.0000
42.3109	50.0000
42.3201	42.0000
42.3294	44.0000
42.3386	39.0000
42.3478	48.0000
42.3570	36.0000
42.3663	46.0000
42.3755	34.0000
42.3847	49.0000
42.3939	46.0000
42.4031	48.0000
42.4124	39.0000
42.4216	37.0000
42.4308	45.0000
42.4400	48.0000
42.4493	43.0000
42.4585	36.0000
42.4677	32.0000
42.4769	40.0000
42.4861	48.0000
42.4954	36.0000
42.5046	40.0000
42.5138	42.0000
42.5230	41.0000
42.5323	35.0000
42.5415	37.0000
42.5507	36.0000
42.5599	38.0000
42.5692	33.0000
42.5784	43.0000
42.5876	50.0000
42.5968	40.0000
42.6060	44.0000
42.6153	32.0000
42.6245	42.0000
42.6337	37.0000
42.6429	27.0000
42.6522	43.0000
42.6614	42.0000
42.6706	38.0000
42.6798	44.0000
42.6890	45.0000
42.6983	35.0000
42.7075	42.0000
42.7167	42.0000
42.7259	41.0000
42.7352	24.0000
42.7444	49.0000
42.7536	47.0000
42.7628	39.0000
42.7720	32.0000
42.7813	48.0000
42.7905	37.0000
42.7997	37.0000
42.8089	37.0000
42.8182	45.0000
42.8274	40.0000
42.8366	34.0000
42.8458	44.0000
42.8551	35.0000
42.8643	35.0000
42.8735	37.0000
42.8827	48.0000
42.8919	48.0000
42.9012	38.0000
42.9104	44.0000
42.9196	34.0000
42.9288	43.0000
42.9381	43.0000
42.9473	45.0000
42.9565	43.0000
42.9657	51.0000
42.9749	46.0000
42.9842	55.0000
42.9934	34.0000
43.0026	48.0000
43.0118	44.0000
43.0211	31.0000
43.0303	62.0000
43.0395	39.0000
43.0487	42.0000
43.0580	45.0000
43.0672	37.0000
43.0764	33.0000
43.0856	54.0000
43.0948	40.0000
43.1041	34.0000
43.1133	52.0000
43.1225	41.0000
43.1317	51.0000
43.1410	45.0000
43.1502	50.0000
43.1594	36.0000
43.1686	46.0000
43.1778	48.0000
43.1871	42.0000
43.1963	42.0000
43.2055	52.0000
43.2147	55.0000
43.2240	27.0000
43.2332	53.0000
43.2424	37.0000
43.2516	42.0000
43.2609	46.0000
43.2701	48.0000
43.2793	47.0000
43.2885	40.0000
43.2977	44.0000
43.3070	38.0000
43.3162	38.0000
43.3254	42.0000
43.3346	27.0000
43.3439	40.0000
43.3531	44.0000
43.3623	53.0000
43.3715	37.0000
43.3807	45.0000
43.3900	42.0000
43.3992	46.0000
43.4084	34.0000
43.4176	40.0000
43.4269	34.0000
43.4361	38.0000
43.4453	49.0000
43.4545	43.0000
43.4637	40.0000
43.4730	46.0000
43.4822	48.0000
43.4914	44.0000
43.5006	38.0000
43.5099	45.0000
43.5191	38.0000
43.5283	42.0000
43.5375	35.0000
43.5468	47.0000
43.5560	48.0000
43.5652	57.0000
43.5744	31.0000
43.5836	49.0000
43.5929	48.0000
43.6021	41.0000
43.6113	36.0000
43.6205	32.0000
43.6298	39.0000
43.6390	39.0000
43.6482	40.0000
43.6574	42.0000
43.6666	31.0000
43.6759	34.0000
43.6851	48.0000
43.6943	43.0000
43.7035	34.0000
43.7128	35.0000
43.7220	40.0000
43.7312	51.0000
43.7404	30.0000
43.7497	34.0000
43.7589	43.0000
43.7681	39.0000
43.7773	39.0000
43.7865	45.0000
43.7958	40.0000
43.8050	38.0000
43.8142	40.0000
43.8234	45.0000
43.8327	47.0000
43.8419	33.0000
43.8511	39.0000
43.8603	35.0000
43.8695	35.0000
43.8788	41.0000
43.8880	50.0000
43.8972	43.0000
43.9064	44.0000
43.9157	41.0000
43.9249	39.0000
43.9341	35.0000
43.9433	37.0000
43.9525	43.0000
43.9618	49.0000
43.9710	40.0000
43.9802	45.0000
43.9894	58.0000
43.9987	40.0000
44.0079	34.0000
44.0171	35.0000
44.0263	52.0000
44.0356	47.0000
44.0448	41.0000
44.0540	47.0000
44.0632	34.0000
44.0724	56.0000
44.0817	37.0000
44.0909	47.0000
44.1001	41.0000
44.1093	38.0000
44.1186	37.0000
44.1278	29.0000
44.1370	38.0000
44.1462	39.0000
44.1554	42.0000
44.1647	45.0000
44.1739	30.0000
44.1831	32.0000
44.1923	36.0000
44.2016	25.0000
44.2108	38.0000
44.2200	35.0000
44.2292	31.0000
44.2385	41.0000
44.2477	32.0000
44.2569	50.0000
44.2661	44.0000
44.2753	35.0000
44.2846	51.0000
44.2938	48.0000
44.3030	31.0000
44.3122	46.0000
44.3215	48.0000
44.3307	38.0000
44.3399	34.0000
44.3491	47.0000
44.3583	37.0000
44.3676	40.0000
44.3768	50.0000
44.3860	45.0000
44.3952	43.0000
44.4045	40.0000
44.4137	37.0000
44.4229	42.0000
44.4321	43.0000
44.4414	41.0000
44.4506	40.0000
44.4598	37.0000
44.4690	60.0000
44.4782	41.0000
44.4875	35.0000
44.4967	51.0000
44.5059	39.0000
44.5151	42.0000
44.5244	40.0000
44.5336	45.0000
44.5428	43.0000
44.5520	48.0000
44.5612	40.0000
44.5705	42.0000
44.5797	36.0000
44.5889	35.0000
44.5981	37.0000
44.6074	35.0000
44.6166	50.0000
44.6258	36.0000
44.6350	38.0000
44.6442	46.0000
44.6535	43.0000
44.6627	47.0000
44.6719	33.0000
44.6811	38.0000
44.6904	46.0000
44.6996	40.0000
44.7088	37.0000
44.7180	50.0000
44.7273	32.0000
44.7365	38.0000
44.7457	34.0000
44.7549	36.0000
44.7641	42.0000
44.7734	31.0000
44.7826	43.0000
44.7918	47.0000
44.8010	43.0000
44.8103	43.0000
44.8195	44.0000
44.8287	28.0000
44.8379	36.0000
44.8471	37.0000
44.8564	21.0000
44.8656	44.0000
44.8748	38.0000
44.8840	38.0000
44.8933	37.0000
44.9025	38.0000
44.9117	46.0000
44.9209	33.0000
44.9302	39.0000
44.9394	45.0000
44.9486	47.0000
44.9578	45.0000
44.9670	43.0000
44.9763	37.0000
44.9855	32.0000
44.9947	34.0000
45.0039	34.0000
45.0132	34.0000
45.0224	49.0000
45.0316	38.0000
45.0408	43.0000
45.0500	39.0000
45.0593	36.0000
45.0685	36.0000
45.0777	32.0000
45.0869	52.0000
45.0962	45.0000
45.1054	40.0000
45.1146	45.0000
45.1238	32.0000
45.1330	32.0000
45.1423	34.0000
45.1515	48.0000
45.1607	37.0000
45.1699	33.0000
45.1792	44.0000
45.1884	43.0000
45.1976	43.0000
45.2068	31.0000
45.2161	32.0000
45.2253	34.0000
45.2345	25.0000
45.2437	35.0000
45.2529	47.0000
45.2622	41.0000
45.2714	41.0000
45.2806	32.0000
45.2898	40.0000
45.2991	31.0000
45.3083	33.0000
45.3175	37.0000
45.3267	42.0000
45.3359	48.0000
45.3452	34.0000
45.3544	32.0000
45.3636	38.0000
45.3728	36.0000
45.3821	35.0000
45.3913	44.0000
45.4005	43.0000
45.4097	39.0000
45.4190	49.0000
45.4282	59.0000
45.4374	52.0000
45.4466	66.0000
45.4558	92.0000
45.4651	71.0000
45.4743	41.0000
45.4835	63.0000
45.4927	39.0000
45.5020	37.0000
45.5112	44.0000
45.5204	31.0000
45.5296	36.0000
45.5388	40.0000
45.5481	31.0000
45.5573	30.0000
45.5665	39.0000
45.5757	44.0000
45.5850	46.0000
45.5942	32.0000
45.6034	31.0000
45.6126	40.0000
45.6219	29.0000
45.6311	55.0000
45.6403	38.0000
45.6495	35.0000
45.6587	39.0000
45.6680	33.0000
45.6772	44.0000
45.6864	38.0000
45.6956	37.0000
45.7049	35.0000
45.7141	53.0000
45.7233	59.0000
45.7325	46.0000
45.7417	56.0000
45.7510	56.0000
45.7602	42.0000
45.7694	45.0000
45.7786	37.0000
45.7879	39.0000
45.7971	37.0000
45.8063	32.0000
45.8155	45.0000
45.8247	37.0000
45.8340	36.0000
45.8432	44.0000
45.8524	39.0000
45.8616	29.0000
45.8709	37.0000
45.8801	43.0000
45.8893	39.0000
45.8985	41.0000
45.9078	42.0000
45.9170	39.0000
45.9262	35.0000
45.9354	39.0000
45.9446	37.0000
45.9539	38.0000
45.9631	35.0000
45.9723	32.0000
45.9815	26.0000
45.9908	26.0000
46.0000	33.0000
46.0092	41.0000
46.0184	43.0000
46.0276	44.0000
46.0369	33.0000
46.0461	28.0000
46.0553	37.0000
46.0645	24.0000
46.0738	48.0000
46.0830	44.0000
46.0922	37.0000
46.1014	36.0000
46.1107	35.0000
46.1199	28.0000
46.1291	35.0000
46.1383	30.0000
46.1475	37.0000
46.1568	40.0000
46.1660	46.0000
46.1752	39.0000
46.1844	38.0000
46.1937	26.0000
46.2029	37.0000
46.2121	30.0000
46.2213	42.0000
46.2305	27.0000
46.2398	39.0000
46.2490	32.0000
46.2582	35.0000
46.2674	35.0000
46.2767	36.0000
46.2859	32.0000
46.2951	23.0000
46.3043	32.0000
46.3135	25.0000
46.3228	29.0000
46.3320	35.0000
46.3412	45.0000
46.3504	42.0000
46.3597	24.0000
46.3689	44.0000
46.3781	31.0000
46.3873	34.0000
46.3966	22.0000
46.4058	38.0000
46.4150	32.0000
46.4242	47.0000
46.4334	41.0000
46.4427	29.0000
46.4519	35.0000
46.4611	34.0000
46.4703	36.0000
46.4796	28.0000
46.4888	34.0000
46.4980	36.0000
46.5072	32.0000
46.5164	28.0000
46.5257	38.0000
46.5349	29.0000
46.5441	34.0000
46.5533	37.0000
46.5626	33.0000
46.5718	40.0000
46.5810	41.0000
46.5902	22.0000
46.5995	41.0000
46.6087	31.0000
46.6179	28.0000
46.6271	47.0000
46.6363	28.0000
46.6456	43.0000
46.6548	36.0000
46.6640	41.0000
46.6732	27.0000
46.6825	35.0000
46.6917	31.0000
46.7009	36.0000
46.7101	30.0000
46.7193	36.0000
46.7286	47.0000
46.7378	34.0000
46.7470	35.0000
46.7562	32.0000
46.7655	26.0000
46.7747	38.0000
46.7839	34.0000
46.7931	37.0000
46.8024	35.0000
46.8116	30.0000
46.8208	21.0000
46.8300	29.0000
46.8392	37.0000
46.8485	34.0000
46.8577	30.0000
46.8669	43.0000
46.8761	37.0000
46.8854	39.0000
46.8946	44.0000
46.9038	36.0000
46.9130	41.0000
46.9222	41.0000
46.9315	45.0000
46.9407	40.0000
46.9499	40.0000
46.9591	35.0000
46.9684	43.0000
46.9776	29.0000
46.9868	38.0000
46.9960	29.0000
47.0052	28.0000
47.0145	34.0000
47.0237	39.0000
47.0329	37.0000
47.0421	36.0000
47.0514	35.0000
47.0606	22.0000
47.0698	39.0000
47.0790	36.0000
47.0883	34.0000
47.0975	40.0000
47.1067	31.0000
47.1159	28.0000
47.1251	36.0000
47.1344	38.0000
47.1436	30.0000
47.1528	34.0000
47.1620	31.0000
47.1713	29.0000
47.1805	35.0000
47.1897	23.0000
47.1989	29.0000
47.2081	31.0000
47.2174	31.0000
47.2266	41.0000
47.2358	43.0000
47.2450	38.0000
47.2543	37.0000
47.2635	33.0000
47.2727	34.0000
47.2819	34.0000
47.2912	39.0000
47.3004	30.0000
47.3096	29.0000
47.3188	37.0000
47.3280	22.0000
47.3373	40.0000
47.3465	26.0000
47.3557	34.0000
47.3649	43.0000
47.3742	41.0000
47.3834	31.0000
47.3926	31.0000
47.4018	35.0000
47.4110	47.0000
47.4203	25.0000
47.4295	33.0000
47.4387	27.0000
47.4479	31.0000
47.4572	36.0000
47.4664	38.0000
47.4756	31.0000
47.4848	24.0000
47.4940	35.0000
47.5033	38.0000
47.5125	38.0000
47.5217	32.0000
47.5309	30.0000
47.5402	33.0000
47.5494	38.0000
47.5586	35.0000
47.5678	38.0000
47.5771	24.0000
47.5863	28.0000
47.5955	31.0000
47.6047	31.0000
47.6139	29.0000
47.6232	31.0000
47.6324	37.0000
47.6416	44.0000
47.6508	38.0000
47.6601	31.0000
47.6693	29.0000
47.6785	38.0000
47.6877	36.0000
47.6969	31.0000
47.7062	24.0000
47.7154	43.0000
47.7246	36.0000
47.7338	29.0000
47.7431	42.0000
47.7523	31.0000
47.7615	36.0000
47.7707	28.0000
47.7800	42.0000
47.7892	26.0000
47.7984	34.0000
47.8076	34.0000
47.8168	34.0000
47.8261	32.0000
47.8353	38.0000
47.8445	42.0000
47.8537	38.0000
47.8630	47.0000
47.8722	42.0000
47.8814	35.0000
47.8906	31.0000
47.8998	22.0000
47.9091	32.0000
47.9183	35.0000
47.9275	37.0000
47.9367	29.0000
47.9460	31.0000
47.9552	39.0000
47.9644	35.0000
47.9736	35.0000
47.9829	38.0000
47.9921	36.0000
48.0013	26.0000
