11.0000	549.0000
11.0092	541.0000
11.0184	539.0000
11.0277	509.0000
11.0369	501.0000
11.0461	533.0000
11.0553	560.0000
11.0646	495.0000
11.0738	521.0000
11.0830	542.0000
11.0922	531.0000
11.1014	476.0000
11.1107	523.0000
11.1199	506.0000
11.1291	488.0000
11.1383	539.0000
11.1476	501.0000
11.1568	500.0000
11.1660	444.0000
11.1752	489.0000
11.1845	504.0000
11.1937	505.0000
11.2029	496.0000
11.2121	487.0000
11.2213	502.0000
11.2306	538.0000
11.2398	488.0000
11.2490	504.0000
11.2582	527.0000
11.2675	516.0000
11.2767	499.0000
11.2859	458.0000
11.2951	516.0000
11.3043	521.0000
11.3136	448.0000
11.3228	436.0000
11.3320	475.0000
11.3412	466.0000
11.3505	516.0000
11.3597	469.0000
11.3689	454.0000
11.3781	477.0000
11.3874	462.0000
11.3966	512.0000
11.4058	473.0000
11.4150	487.0000
11.4242	508.0000
11.4335	476.0000
11.4427	460.0000
11.4519	483.0000
11.4611	461.0000
11.4704	457.0000
11.4796	464.0000
11.4888	442.0000
11.4980	450.0000
11.5072	472.0000
11.5165	465.0000
11.5257	463.0000
11.5349	458.0000
11.5441	480.0000
11.5534	443.0000
11.5626	472.0000
11.5718	470.0000
11.5810	454.0000
11.5902	418.0000
11.5995	460.0000
11.6087	445.0000
11.6179	432.0000
11.6271	426.0000
11.6364	456.0000
11.6456	427.0000
11.6548	451.0000
11.6640	446.0000
11.6733	440.0000
11.6825	426.0000
11.6917	436.0000
11.7009	429.0000
11.7101	419.0000
11.7194	481.0000
11.7286	415.0000
11.7378	434.0000
11.7470	453.0000
11.7563	421.0000
11.7655	456.0000
11.7747	422.0000
11.7839	417.0000
11.7931	392.0000
11.8024	415.0000
11.8116	426.0000
11.8208	417.0000
11.8300	436.0000
11.8393	417.0000
11.8485	389.0000
11.8577	427.0000
11.8669	405.0000
11.8762	381.0000
11.8854	419.0000
11.8946	389.0000
11.9038	436.0000
11.9130	421.0000
11.9223	424.0000
11.9315	409.0000
11.9407	440.0000
11.9499	377.0000
11.9592	356.0000
11.9684	385.0000
11.9776	402.0000
11.9868	391.0000
11.9960	409.0000
12.0053	369.0000
12.0145	387.0000
12.0237	410.0000
12.0329	394.0000
12.0422	385.0000
12.0514	363.0000
12.0606	392.0000
12.0698	367.0000
12.0791	382.0000
12.0883	388.0000
12.0975	381.0000
12.1067	368.0000
12.1159	392.0000
12.1252	382.0000
12.1344	394.0000
12.1436	410.0000
12.1528	362.0000
12.1621	380.0000
12.1713	363.0000
12.1805	387.0000
12.1897	376.0000
12.1989	407.0000
12.2082	393.0000
12.2174	358.0000
12.2266	365.0000
12.2358	373.0000
12.2451	396.0000
12.2543	347.0000
12.2635	383.0000
12.2727	382.0000
12.2819	366.0000
12.2912	344.0000
12.3004	364.0000
12.3096	426.0000
12.3188	347.0000
12.3281	350.0000
12.3373	344.0000
12.3465	380.0000
12.3557	358.0000
12.3650	330.0000
12.3742	350.0000
12.3834	361.0000
12.3926	356.0000
12.4018	334.0000
12.4111	360.0000
12.4203	377.0000
12.4295	368.0000
12.4387	353.0000
12.4480	367.0000
12.4572	349.0000
12.4664	334.0000
12.4756	356.0000
12.4848	365.0000
12.4941	369.0000
12.5033	340.0000
12.5125	335.0000
12.5217	350.0000
12.5310	330.0000
12.5402	333.0000
12.5494	343.0000
12.5586	360.0000
12.5679	333.0000
12.5771	314.0000
12.5863	321.0000
12.5955	320.0000
12.6047	347.0000
12.6140	353.0000
12.6232	302.0000
12.6324	358.0000
12.6416	339.0000
12.6509	320.0000
12.6601	335.0000
12.6693	333.0000
12.6785	358.0000
12.6877	374.0000
12.6970	331.0000
12.7062	343.0000
12.7154	292.0000
12.7246	312.0000
12.7339	333.0000
12.7431	366.0000
12.7523	370.0000
12.7615	362.0000
12.7707	337.0000
12.7800	322.0000
12.7892	315.0000
12.7984	326.0000
12.8076	308.0000
12.8169	306.0000
12.8261	332.0000
12.8353	356.0000
12.8445	343.0000
12.8538	328.0000
12.8630	313.0000
12.8722	293.0000
12.8814	298.0000
12.8906	313.0000
12.8999	349.0000
12.9091	331.0000
12.9183	331.0000
12.9275	288.0000
12.9368	339.0000
12.9460	321.0000
12.9552	326.0000
12.9644	344.0000
12.9736	315.0000
12.9829	301.0000
12.9921	330.0000
13.0013	288.0000
13.0105	329.0000
13.0198	367.0000
13.0290	313.0000
13.0382	308.0000
13.0474	293.0000
13.0567	307.0000
13.0659	323.0000
13.0751	317.0000
13.0843	308.0000
13.0935	326.0000
13.1028	272.0000
13.1120	294.0000
13.1212	291.0000
13.1304	301.0000
13.1397	326.0000
13.1489	274.0000
13.1581	293.0000
13.1673	284.0000
13.1765	290.0000
13.1858	328.0000
13.1950	315.0000
13.2042	283.0000
13.2134	287.0000
13.2227	301.0000
13.2319	321.0000
13.2411	303.0000
13.2503	261.0000
13.2596	330.0000
13.2688	331.0000
13.2780	308.0000
13.2872	289.0000
13.2964	314.0000
13.3057	289.0000
13.3149	302.0000
13.3241	307.0000
13.3333	282.0000
13.3426	276.0000
13.3518	303.0000
13.3610	269.0000
13.3702	300.0000
13.3794	288.0000
13.3887	291.0000
13.3979	252.0000
13.4071	289.0000
13.4163	275.0000
13.4256	279.0000
13.4348	282.0000
13.4440	277.0000
13.4532	281.0000
13.4624	280.0000
13.4717	273.0000
13.4809	266.0000
13.4901	290.0000
13.4993	284.0000
13.5086	289.0000
13.5178	265.0000
13.5270	287.0000
13.5362	279.0000
13.5455	310.0000
13.5547	250.0000
13.5639	261.0000
13.5731	285.0000
13.5823	251.0000
13.5916	254.0000
13.6008	268.0000
13.6100	294.0000
13.6192	276.0000
13.6285	275.0000
13.6377	274.0000
13.6469	268.0000
13.6561	273.0000
13.6653	262.0000
13.6746	276.0000
13.6838	285.0000
13.6930	311.0000
13.7022	246.0000
13.7115	253.0000
13.7207	273.0000
13.7299	251.0000
13.7391	273.0000
13.7484	256.0000
13.7576	227.0000
13.7668	252.0000
13.7760	269.0000
13.7852	266.0000
13.7945	274.0000
13.8037	259.0000
13.8129	265.0000
13.8221	256.0000
13.8314	270.0000
13.8406	263.0000
13.8498	257.0000
13.8590	250.0000
13.8682	263.0000
13.8775	255.0000
13.8867	256.0000
13.8959	241.0000
13.9051	248.0000
13.9144	282.0000
13.9236	268.0000
13.9328	261.0000
13.9420	242.0000
13.9512	268.0000
13.9605	281.0000
13.9697	272.0000
13.9789	268.0000
13.9881	236.0000
13.9974	274.0000
14.0066	240.0000
14.0158	268.0000
14.0250	290.0000
14.0343	280.0000
14.0435	260.0000
14.0527	252.0000
14.0619	265.0000
14.0711	249.0000
14.0804	262.0000
14.0896	257.0000
14.0988	246.0000
14.1080	254.0000
14.1173	287.0000
14.1265	253.0000
14.1357	239.0000
14.1449	243.0000
14.1541	249.0000
14.1634	260.0000
14.1726	286.0000
14.1818	221.0000
14.1910	261.0000
14.2003	271.0000
14.2095	217.0000
14.2187	251.0000
14.2279	265.0000
14.2372	223.0000
14.2464	234.0000
14.2556	270.0000
14.2648	253.0000
14.2740	236.0000
14.2833	255.0000
14.2925	235.0000
14.3017	272.0000
14.3109	231.0000
14.3202	221.0000
14.3294	252.0000
14.3386	251.0000
14.3478	237.0000
14.3570	216.0000
14.3663	236.0000
14.3755	221.0000
14.3847	259.0000
14.3939	248.0000
14.4032	229.0000
14.4124	237.0000
14.4216	223.0000
14.4308	239.0000
14.4401	245.0000
14.4493	224.0000
14.4585	232.0000
14.4677	240.0000
14.4769	245.0000
14.4862	253.0000
14.4954	261.0000
14.5046	252.0000
14.5138	246.0000
14.5231	222.0000
14.5323	251.0000
14.5415	260.0000
14.5507	226.0000
14.5599	244.0000
14.5692	250.0000
14.5784	233.0000
14.5876	233.0000
14.5968	232.0000
14.6061	211.0000
14.6153	234.0000
14.6245	217.0000
14.6337	223.0000
14.6429	262.0000
14.6522	212.0000
14.6614	196.0000
14.6706	246.0000
14.6798	260.0000
14.6891	229.0000
14.6983	220.0000
14.7075	222.0000
14.7167	223.0000
14.7260	244.0000
14.7352	215.0000
14.7444	248.0000
14.7536	236.0000
14.7628	254.0000
14.7721	240.0000
14.7813	239.0000
14.7905	207.0000
14.7997	233.0000
14.8090	232.0000
14.8182	237.0000
14.8274	226.0000
14.8366	223.0000
14.8458	211.0000
14.8551	229.0000
14.8643	243.0000
14.8735	223.0000
14.8827	227.0000
14.8920	252.0000
14.9012	246.0000
14.9104	250.0000
14.9196	235.0000
14.9289	187.0000
14.9381	233.0000
14.9473	223.0000
14.9565	199.0000
14.9657	228.0000
14.9750	236.0000
14.9842	241.0000
14.9934	234.0000
15.0026	213.0000
15.0119	210.0000
15.0211	226.0000
15.0303	220.0000
15.0395	218.0000
15.0487	212.0000
15.0580	212.0000
15.0672	236.0000
15.0764	229.0000
15.0856	214.0000
15.0949	229.0000
15.1041	244.0000
15.1133	223.0000
15.1225	225.0000
15.1317	224.0000
15.1410	223.0000
15.1502	208.0000
15.1594	249.0000
15.1686	209.0000
15.1779	227.0000
15.1871	205.0000
15.1963	205.0000
15.2055	214.0000
15.2148	245.0000
15.2240	218.0000
15.2332	185.0000
15.2424	199.0000
15.2516	210.0000
15.2609	200.0000
15.2701	227.0000
15.2793	201.0000
15.2885	244.0000
15.2978	208.0000
15.3070	224.0000
15.3162	205.0000
15.3254	224.0000
15.3346	209.0000
15.3439	229.0000
15.3531	220.0000
15.3623	202.0000
15.3715	235.0000
15.3808	234.0000
15.3900	222.0000
15.3992	194.0000
15.4084	211.0000
15.4177	195.0000
15.4269	223.0000
15.4361	206.0000
15.4453	214.0000
15.4545	207.0000
15.4638	201.0000
15.4730	241.0000
15.4822	216.0000
15.4914	195.0000
15.5007	209.0000
15.5099	230.0000
15.5191	233.0000
15.5283	210.0000
15.5375	247.0000
15.5468	211.0000
15.5560	221.0000
15.5652	194.0000
15.5744	214.0000
15.5837	210.0000
15.5929	221.0000
15.6021	233.0000
15.6113	193.0000
15.6206	223.0000
15.6298	200.0000
15.6390	205.0000
15.6482	203.0000
15.6574	229.0000
15.6667	208.0000
15.6759	209.0000
15.6851	206.0000
15.6943	208.0000
15.7036	191.0000
15.7128	206.0000
15.7220	186.0000
15.7312	196.0000
15.7404	184.0000
15.7497	215.0000
15.7589	228.0000
15.7681	224.0000
15.7773	225.0000
15.7866	217.0000
15.7958	177.0000
15.8050	216.0000
15.8142	208.0000
15.8234	189.0000
15.8327	197.0000
15.8419	180.0000
15.8511	197.0000
15.8603	213.0000
15.8696	204.0000
15.8788	188.0000
15.8880	181.0000
15.8972	212.0000
15.9065	227.0000
15.9157	199.0000
15.9249	202.0000
15.9341	207.0000
15.9433	216.0000
15.9526	188.0000
15.9618	212.0000
15.9710	193.0000
15.9802	222.0000
15.9895	194.0000
15.9987	217.0000
16.0079	186.0000
16.0171	193.0000
16.0263	196.0000
16.0356	198.0000
16.0448	222.0000
16.0540	194.0000
16.0632	203.0000
16.0725	189.0000
16.0817	190.0000
16.0909	182.0000
16.1001	213.0000
16.1094	209.0000
16.1186	180.0000
16.1278	196.0000
16.1370	210.0000
16.1462	206.0000
16.1555	201.0000
16.1647	187.0000
16.1739	203.0000
16.1831	202.0000
16.1924	197.0000
16.2016	212.0000
16.2108	185.0000
16.2200	210.0000
16.2292	226.0000
16.2385	205.0000
16.2477	182.0000
16.2569	179.0000
16.2661	193.0000
16.2754	197.0000
16.2846	205.0000
16.2938	195.0000
16.3030	211.0000
16.3122	201.0000
16.3215	181.0000
16.3307	187.0000
16.3399	199.0000
16.3491	166.0000
16.3584	189.0000
16.3676	173.0000
16.3768	180.0000
16.3860	183.0000
16.3953	197.0000
16.4045	211.0000
16.4137	185.0000
16.4229	186.0000
16.4321	189.0000
16.4414	188.0000
16.4506	192.0000
16.4598	197.0000
16.4690	167.0000
16.4783	173.0000
16.4875	187.0000
16.4967	203.0000
16.5059	202.0000
16.5151	166.0000
16.5244	176.0000
16.5336	204.0000
16.5428	190.0000
16.5520	192.0000
16.5613	195.0000
16.5705	207.0000
16.5797	208.0000
16.5889	191.0000
16.5982	193.0000
16.6074	201.0000
16.6166	211.0000
16.6258	181.0000
16.6350	198.0000
16.6443	196.0000
16.6535	201.0000
16.6627	190.0000
16.6719	176.0000
16.6812	193.0000
16.6904	205.0000
16.6996	200.0000
16.7088	188.0000
16.7180	195.0000
16.7273	191.0000
16.7365	174.0000
16.7457	161.0000
16.7549	178.0000
16.7642	162.0000
16.7734	199.0000
16.7826	159.0000
16.7918	177.0000
16.8011	181.0000
16.8103	204.0000
16.8195	212.0000
16.8287	181.0000
16.8379	181.0000
16.8472	176.0000
16.8564	194.0000
16.8656	185.0000
16.8748	181.0000
16.8841	182.0000
16.8933	183.0000
16.9025	176.0000
16.9117	191.0000
16.9209	198.0000
16.9302	182.0000
16.9394	180.0000
16.9486	157.0000
16.9578	189.0000
16.9671	147.0000
16.9763	165.0000
16.9855	194.0000
16.9947	168.0000
17.0039	168.0000
17.0132	171.0000
17.0224	173.0000
17.0316	194.0000
17.0408	179.0000
17.0501	161.0000
17.0593	179.0000
17.0685	189.0000
17.0777	153.0000
17.0870	182.0000
17.0962	162.0000
17.1054	161.0000
17.1146	199.0000
17.1238	184.0000
17.1331	158.0000
17.1423	167.0000
17.1515	159.0000
17.1607	171.0000
17.1700	191.0000
17.1792	172.0000
17.1884	157.0000
17.1976	174.0000
17.2068	158.0000
17.2161	187.0000
17.2253	165.0000
17.2345	199.0000
17.2437	157.0000
17.2530	174.0000
17.2622	159.0000
17.2714	188.0000
17.2806	170.0000
17.2899	170.0000
17.2991	190.0000
17.3083	162.0000
17.3175	160.0000
17.3267	154.0000
17.3360	160.0000
17.3452	167.0000
17.3544	163.0000
17.3636	164.0000
17.3729	167.0000
17.3821	159.0000
17.3913	161.0000
17.4005	168.0000
17.4097	147.0000
17.4190	165.0000
17.4282	165.0000
17.4374	149.0000
17.4466	176.0000
17.4559	158.0000
17.4651	165.0000
17.4743	154.0000
17.4835	141.0000
17.4927	149.0000
17.5020	183.0000
17.5112	177.0000
17.5204	144.0000
17.5296	155.0000
17.5389	168.0000
17.5481	167.0000
17.5573	156.0000
17.5665	151.0000
17.5758	168.0000
17.5850	172.0000
17.5942	161.0000
17.6034	170.0000
17.6126	151.0000
17.6219	144.0000
17.6311	145.0000
17.6403	167.0000
17.6495	156.0000
17.6588	177.0000
17.6680	155.0000
17.6772	168.0000
17.6864	150.0000
17.6956	154.0000
17.7049	163.0000
17.7141	154.0000
17.7233	152.0000
17.7325	143.0000
17.7418	144.0000
17.7510	145.0000
17.7602	159.0000
17.7694	158.0000
17.7787	113.0000
17.7879	160.0000
17.7971	150.0000
17.8063	186.0000
17.8155	177.0000
17.8248	143.0000
17.8340	158.0000
17.8432	161.0000
17.8524	155.0000
17.8617	155.0000
17.8709	155.0000
17.8801	141.0000
17.8893	146.0000
17.8985	150.0000
17.9078	149.0000
17.9170	156.0000
17.9262	167.0000
17.9354	156.0000
17.9447	142.0000
17.9539	154.0000
17.9631	131.0000
17.9723	147.0000
17.9816	161.0000
17.9908	169.0000
18.0000	169.0000
18.0092	132.0000
18.0184	143.0000
18.0277	144.0000
18.0369	128.0000
18.0461	156.0000
18.0553	175.0000
18.0646	162.0000
18.0738	160.0000
18.0830	165.0000
18.0922	138.0000
18.1014	134.0000
18.1107	142.0000
18.1199	169.0000
18.1291	157.0000
18.1383	157.0000
18.1476	135.0000
18.1568	140.0000
18.1660	122.0000
18.1752	164.0000
18.1844	147.0000
18.1937	154.0000
18.2029	161.0000
18.2121	142.0000
18.2213	152.0000
18.2306	146.0000
18.2398	134.0000
18.2490	180.0000
18.2582	136.0000
18.2675	136.0000
18.2767	156.0000
18.2859	173.0000
18.2951	147.0000
18.3043	160.0000
18.3136	147.0000
18.3228	139.0000
18.3320	136.0000
18.3412	158.0000
18.3505	172.0000
18.3597	137.0000
18.3689	155.0000
18.3781	153.0000
18.3873	143.0000
18.3966	138.0000
18.4058	153.0000
18.4150	134.0000
18.4242	139.0000
18.4335	137.0000
18.4427	162.0000
18.4519	134.0000
18.4611	173.0000
18.4704	179.0000
18.4796	136.0000
18.4888	154.0000
18.4980	159.0000
18.5072	137.0000
18.5165	144.0000
18.5257	151.0000
18.5349	147.0000
18.5441	134.0000
18.5534	145.0000
18.5626	135.0000
18.5718	153.0000
18.5810	141.0000
18.5902	152.0000
18.5995	128.0000
18.6087	138.0000
18.6179	169.0000
18.6271	144.0000
18.6364	154.0000
18.6456	126.0000
18.6548	160.0000
18.6640	150.0000
18.6732	159.0000
18.6825	151.0000
18.6917	136.0000
18.7009	172.0000
18.7101	138.0000
18.7194	149.0000
18.7286	129.0000
18.7378	161.0000
18.7470	134.0000
18.7563	158.0000
18.7655	139.0000
18.7747	130.0000
18.7839	151.0000
18.7931	159.0000
18.8024	138.0000
18.8116	138.0000
18.8208	175.0000
18.8300	163.0000
18.8393	164.0000
18.8485	147.0000
18.8577	151.0000
18.8669	155.0000
18.8761	145.0000
18.8854	159.0000
18.8946	149.0000
18.9038	138.0000
18.9130	140.0000
18.9223	142.0000
18.9315	147.0000
18.9407	141.0000
18.9499	147.0000
18.9592	128.0000
18.9684	157.0000
18.9776	147.0000
18.9868	163.0000
18.9960	151.0000
19.0053	146.0000
19.0145	145.0000
19.0237	154.0000
19.0329	161.0000
19.0422	136.0000
19.0514	140.0000
19.0606	155.0000
19.0698	158.0000
19.0790	173.0000
19.0883	139.0000
19.0975	162.0000
19.1067	139.0000
19.1159	160.0000
19.1252	158.0000
19.1344	150.0000
19.1436	142.0000
19.1528	155.0000
19.1621	165.0000
19.1713	157.0000
19.1805	168.0000
19.1897	140.0000
19.1989	189.0000
19.2082	150.0000
19.2174	152.0000
19.2266	136.0000
19.2358	149.0000
19.2451	147.0000
19.2543	160.0000
19.2635	140.0000
19.2727	146.0000
19.2819	157.0000
19.2912	154.0000
19.3004	151.0000
19.3096	124.0000
19.3188	165.0000
19.3281	164.0000
19.3373	150.0000
19.3465	139.0000
19.3557	151.0000
19.3649	160.0000
19.3742	134.0000
19.3834	145.0000
19.3926	147.0000
19.4018	156.0000
19.4111	154.0000
19.4203	147.0000
19.4295	145.0000
19.4387	162.0000
19.4480	140.0000
19.4572	161.0000
19.4664	149.0000
19.4756	144.0000
19.4848	141.0000
19.4941	156.0000
19.5033	146.0000
19.5125	150.0000
19.5217	151.0000
19.5310	147.0000
19.5402	144.0000
19.5494	173.0000
19.5586	125.0000
19.5678	136.0000
19.5771	156.0000
19.5863	158.0000
19.5955	158.0000
19.6047	159.0000
19.6140	157.0000
19.6232	160.0000
19.6324	153.0000
19.6416	154.0000
19.6509	135.0000
19.6601	144.0000
19.6693	163.0000
19.6785	178.0000
19.6877	133.0000
19.6970	146.0000
19.7062	154.0000
19.7154	160.0000
19.7246	150.0000
19.7339	163.0000
19.7431	139.0000
19.7523	148.0000
19.7615	164.0000
19.7707	158.0000
19.7800	143.0000
19.7892	169.0000
19.7984	174.0000
19.8076	114.0000
19.8169	162.0000
19.8261	159.0000
19.8353	141.0000
19.8445	167.0000
19.8537	180.0000
19.8630	163.0000
19.8722	156.0000
19.8814	147.0000
19.8906	139.0000
19.8999	154.0000
19.9091	199.0000
19.9183	141.0000
19.9275	173.0000
19.9368	169.0000
19.9460	157.0000
19.9552	164.0000
19.9644	158.0000
19.9736	143.0000
19.9829	166.0000
19.9921	143.0000
20.0013	136.0000
20.0105	150.0000
20.0198	129.0000
20.0290	171.0000
20.0382	169.0000
20.0474	132.0000
20.0566	150.0000
20.0659	140.0000
20.0751	138.0000
20.0843	162.0000
20.0935	152.0000
20.1028	159.0000
20.1120	144.0000
20.1212	143.0000
20.1304	168.0000
20.1397	146.0000
20.1489	149.0000
20.1581	147.0000
20.1673	153.0000
20.1765	174.0000
20.1858	159.0000
20.1950	145.0000
20.2042	115.0000
20.2134	135.0000
20.2227	122.0000
20.2319	157.0000
20.2411	144.0000
20.2503	163.0000
20.2595	164.0000
20.2688	161.0000
20.2780	163.0000
20.2872	145.0000
20.2964	178.0000
20.3057	128.0000
20.3149	153.0000
20.3241	179.0000
20.3333	172.0000
20.3426	170.0000
20.3518	164.0000
20.3610	151.0000
20.3702	148.0000
20.3794	139.0000
20.3887	152.0000
20.3979	141.0000
20.4071	158.0000
20.4163	141.0000
20.4256	164.0000
20.4348	160.0000
20.4440	136.0000
20.4532	176.0000
20.4624	164.0000
20.4717	160.0000
20.4809	133.0000
20.4901	162.0000
20.4993	164.0000
20.5086	167.0000
20.5178	164.0000
20.5270	170.0000
20.5362	149.0000
20.5454	159.0000
20.5547	141.0000
20.5639	142.0000
20.5731	135.0000
20.5823	165.0000
20.5916	144.0000
20.6008	131.0000
20.6100	156.0000
20.6192	153.0000
20.6285	156.0000
20.6377	169.0000
20.6469	139.0000
20.6561	148.0000
20.6653	156.0000
20.6746	169.0000
20.6838	173.0000
20.6930	153.0000
20.7022	192.0000
20.7115	164.0000
20.7207	181.0000
20.7299	146.0000
20.7391	157.0000
20.7483	160.0000
20.7576	152.0000
20.7668	148.0000
20.7760	156.0000
20.7852	165.0000
20.7945	159.0000
20.8037	154.0000
20.8129	172.0000
20.8221	167.0000
20.8314	161.0000
20.8406	157.0000
20.8498	160.0000
20.8590	170.0000
20.8682	176.0000
20.8775	165.0000
20.8867	162.0000
20.8959	159.0000
20.9051	160.0000
20.9144	170.0000
20.9236	177.0000
20.9328	181.0000
20.9420	169.0000
20.9512	177.0000
20.9605	145.0000
20.9697	179.0000
20.9789	150.0000
20.9881	162.0000
20.9974	158.0000
21.0066	190.0000
21.0158	156.0000
21.0250	172.0000
21.0342	188.0000
21.0435	177.0000
21.0527	174.0000
21.0619	186.0000
21.0711	183.0000
21.0804	168.0000
21.0896	164.0000
21.0988	191.0000
21.1080	174.0000
21.1173	175.0000
21.1265	178.0000
21.1357	194.0000
21.1449	151.0000
21.1541	171.0000
21.1634	200.0000
21.1726	189.0000
21.1818	228.0000
21.1910	214.0000
21.2003	240.0000
21.2095	221.0000
21.2187	209.0000
21.2279	230.0000
21.2371	236.0000
21.2464	287.0000
21.2556	397.0000
21.2648	485.0000
21.2740	869.0000
21.2833	1509.0000
21.2925	2390.0000
21.3017	2882.0000
21.3109	2594.0000
21.3202	1666.0000
21.3294	990.0000
21.3386	590.0000
21.3478	372.0000
21.3570	291.0000
21.3663	273.0000
21.3755	300.0000
21.3847	309.0000
21.3939	447.0000
21.4032	682.0000
21.4124	1072.0000
21.4216	1531.0000
21.4308	1588.0000
21.4400	1333.0000
21.4493	852.0000
21.4585	508.0000
21.4677	356.0000
21.4769	272.0000
21.4862	205.0000
21.4954	223.0000
21.5046	207.0000
21.5138	193.0000
21.5231	195.0000
21.5323	178.0000
21.5415	176.0000
21.5507	195.0000
21.5599	198.0000
21.5692	157.0000
21.5784	198.0000
21.5876	201.0000
21.5968	168.0000
21.6061	185.0000
21.6153	188.0000
21.6245	169.0000
21.6337	159.0000
21.6429	174.0000
21.6522	180.0000
21.6614	169.0000
21.6706	178.0000
21.6798	155.0000
21.6891	167.0000
21.6983	151.0000
21.7075	171.0000
21.7167	159.0000
21.7259	169.0000
21.7352	162.0000
21.7444	174.0000
21.7536	172.0000
21.7628	170.0000
21.7721	170.0000
21.7813	162.0000
21.7905	170.0000
21.7997	140.0000
21.8090	166.0000
21.8182	173.0000
21.8274	160.0000
21.8366	162.0000
21.8458	148.0000
21.8551	160.0000
21.8643	155.0000
21.8735	157.0000
21.8827	166.0000
21.8920	130.0000
21.9012	176.0000
21.9104	153.0000
21.9196	184.0000
21.9288	148.0000
21.9381	171.0000
21.9473	153.0000
21.9565	167.0000
21.9657	168.0000
21.9750	159.0000
21.9842	156.0000
21.9934	147.0000
22.0026	161.0000
22.0119	152.0000
22.0211	146.0000
22.0303	175.0000
22.0395	159.0000
22.0487	174.0000
22.0580	163.0000
22.0672	165.0000
22.0764	165.0000
22.0856	145.0000
22.0949	174.0000
22.1041	192.0000
22.1133	162.0000
22.1225	154.0000
22.1317	161.0000
22.1410	178.0000
22.1502	165.0000
22.1594	154.0000
22.1686	172.0000
22.1779	153.0000
22.1871	172.0000
22.1963	154.0000
22.2055	171.0000
22.2147	175.0000
22.2240	166.0000
22.2332	142.0000
22.2424	138.0000
22.2516	157.0000
22.2609	135.0000
22.2701	157.0000
22.2793	143.0000
22.2885	163.0000
22.2978	146.0000
22.3070	162.0000
22.3162	145.0000
22.3254	164.0000
22.3346	146.0000
22.3439	176.0000
22.3531	171.0000
22.3623	168.0000
22.3715	157.0000
22.3808	133.0000
22.3900	171.0000
22.3992	156.0000
22.4084	167.0000
22.4176	155.0000
22.4269	160.0000
22.4361	160.0000
22.4453	147.0000
22.4545	153.0000
22.4638	160.0000
22.4730	146.0000
22.4822	159.0000
22.4914	156.0000
22.5007	159.0000
22.5099	162.0000
22.5191	166.0000
22.5283	163.0000
22.5375	161.0000
22.5468	153.0000
22.5560	164.0000
22.5652	150.0000
22.5744	151.0000
22.5837	147.0000
22.5929	160.0000
22.6021	141.0000
22.6113	130.0000
22.6205	160.0000
22.6298	152.0000
22.6390	154.0000
22.6482	157.0000
22.6574	131.0000
22.6667	166.0000
22.6759	147.0000
22.6851	182.0000
22.6943	169.0000
22.7036	150.0000
22.7128	168.0000
22.7220	173.0000
22.7312	150.0000
22.7404	137.0000
22.7497	166.0000
22.7589	138.0000
22.7681	156.0000
22.7773	139.0000
22.7866	151.0000
22.7958	142.0000
22.8050	157.0000
22.8142	144.0000
22.8234	150.0000
22.8327	163.0000
22.8419	150.0000
22.8511	169.0000
22.8603	135.0000
22.8696	153.0000
22.8788	151.0000
22.8880	151.0000
22.8972	148.0000
22.9064	160.0000
22.9157	144.0000
22.9249	143.0000
22.9341	143.0000
22.9433	141.0000
22.9526	136.0000
22.9618	154.0000
22.9710	142.0000
22.9802	140.0000
22.9895	140.0000
22.9987	153.0000
23.0079	140.0000
23.0171	125.0000
23.0263	155.0000
23.0356	152.0000
23.0448	156.0000
23.0540	149.0000
23.0632	147.0000
23.0725	135.0000
23.0817	157.0000
23.0909	155.0000
23.1001	136.0000
23.1093	135.0000
23.1186	145.0000
23.1278	164.0000
23.1370	154.0000
23.1462	134.0000
23.1555	147.0000
23.1647	148.0000
23.1739	146.0000
23.1831	143.0000
23.1924	148.0000
23.2016	142.0000
23.2108	147.0000
23.2200	162.0000
23.2292	147.0000
23.2385	173.0000
23.2477	161.0000
23.2569	135.0000
23.2661	152.0000
23.2754	134.0000
23.2846	145.0000
23.2938	140.0000
23.3030	141.0000
23.3122	141.0000
23.3215	108.0000
23.3307	148.0000
23.3399	132.0000
23.3491	158.0000
23.3584	133.0000
23.3676	148.0000
23.3768	147.0000
23.3860	151.0000
23.3952	166.0000
23.4045	137.0000
23.4137	158.0000
23.4229	121.0000
23.4321	145.0000
23.4414	132.0000
23.4506	156.0000
23.4598	127.0000
23.4690	130.0000
23.4783	142.0000
23.4875	119.0000
23.4967	147.0000
23.5059	145.0000
23.5151	131.0000
23.5244	154.0000
23.5336	127.0000
23.5428	128.0000
23.5520	165.0000
23.5613	124.0000
23.5705	137.0000
23.5797	147.0000
23.5889	125.0000
23.5981	148.0000
23.6074	168.0000
23.6166	145.0000
23.6258	126.0000
23.6350	158.0000
23.6443	152.0000
23.6535	144.0000
23.6627	145.0000
23.6719	143.0000
23.6812	154.0000
23.6904	151.0000
23.6996	159.0000
23.7088	157.0000
23.7180	147.0000
23.7273	150.0000
23.7365	153.0000
23.7457	139.0000
23.7549	131.0000
23.7642	155.0000
23.7734	166.0000
23.7826	138.0000
23.7918	167.0000
23.8010	124.0000
23.8103	147.0000
23.8195	145.0000
23.8287	161.0000
23.8379	146.0000
23.8472	133.0000
23.8564	139.0000
23.8656	115.0000
23.8748	146.0000
23.8841	141.0000
23.8933	142.0000
23.9025	156.0000
23.9117	131.0000
23.9209	152.0000
23.9302	163.0000
23.9394	137.0000
23.9486	132.0000
23.9578	150.0000
23.9671	151.0000
23.9763	143.0000
23.9855	139.0000
23.9947	147.0000
24.0039	162.0000
24.0132	121.0000
24.0224	114.0000
24.0316	131.0000
24.0408	145.0000
24.0501	125.0000
24.0593	146.0000
24.0685	150.0000
24.0777	121.0000
24.0869	147.0000
24.0962	139.0000
24.1054	153.0000
24.1146	140.0000
24.1238	138.0000
24.1331	149.0000
24.1423	137.0000
24.1515	164.0000
24.1607	141.0000
24.1700	122.0000
24.1792	140.0000
24.1884	135.0000
24.1976	134.0000
24.2068	167.0000
24.2161	159.0000
24.2253	144.0000
24.2345	143.0000
24.2437	131.0000
24.2530	180.0000
24.2622	162.0000
24.2714	150.0000
24.2806	145.0000
24.2898	152.0000
24.2991	156.0000
24.3083	139.0000
24.3175	150.0000
24.3267	147.0000
24.3360	151.0000
24.3452	129.0000
24.3544	159.0000
24.3636	140.0000
24.3729	158.0000
24.3821	138.0000
24.3913	132.0000
24.4005	160.0000
24.4097	138.0000
24.4190	144.0000
24.4282	146.0000
24.4374	138.0000
24.4466	147.0000
24.4559	130.0000
24.4651	144.0000
24.4743	157.0000
24.4835	150.0000
24.4927	145.0000
24.5020	118.0000
24.5112	147.0000
24.5204	168.0000
24.5296	138.0000
24.5389	155.0000
24.5481	132.0000
24.5573	174.0000
24.5665	160.0000
24.5757	139.0000
24.5850	165.0000
24.5942	145.0000
24.6034	155.0000
24.6126	140.0000
24.6219	135.0000
24.6311	174.0000
24.6403	148.0000
24.6495	137.0000
24.6588	145.0000
24.6680	139.0000
24.6772	147.0000
24.6864	141.0000
24.6956	138.0000
24.7049	145.0000
24.7141	128.0000
24.7233	144.0000
24.7325	131.0000
24.7418	128.0000
24.7510	158.0000
24.7602	148.0000
24.7694	139.0000
24.7786	141.0000
24.7879	140.0000
24.7971	162.0000
24.8063	128.0000
24.8155	136.0000
24.8248	158.0000
24.8340	170.0000
24.8432	158.0000
24.8524	138.0000
24.8617	128.0000
24.8709	150.0000
24.8801	150.0000
24.8893	144.0000
24.8985	156.0000
24.9078	165.0000
24.9170	145.0000
24.9262	159.0000
24.9354	127.0000
24.9447	146.0000
24.9539	159.0000
24.9631	158.0000
24.9723	150.0000
24.9815	125.0000
24.9908	146.0000
25.0000	161.0000
25.0092	128.0000
25.0184	140.0000
25.0277	159.0000
25.0369	128.0000
25.0461	166.0000
25.0553	140.0000
25.0646	132.0000
25.0738	138.0000
25.0830	144.0000
25.0922	133.0000
25.1014	148.0000
25.1107	147.0000
25.1199	148.0000
25.1291	153.0000
25.1383	170.0000
25.1476	150.0000
25.1568	143.0000
25.1660	140.0000
25.1752	148.0000
25.1844	142.0000
25.1937	143.0000
25.2029	155.0000
25.2121	141.0000
25.2213	151.0000
25.2306	166.0000
25.2398	128.0000
25.2490	136.0000
25.2582	135.0000
25.2674	150.0000
25.2767	131.0000
25.2859	159.0000
25.2951	143.0000
25.3043	153.0000
25.3136	159.0000
25.3228	150.0000
25.3320	144.0000
25.3412	145.0000
25.3505	145.0000
25.3597	172.0000
25.3689	129.0000
25.3781	165.0000
25.3873	141.0000
25.3966	144.0000
25.4058	163.0000
25.4150	164.0000
25.4242	166.0000
25.4335	129.0000
25.4427	167.0000
25.4519	161.0000
25.4611	135.0000
25.4703	152.0000
25.4796	145.0000
25.4888	155.0000
25.4980	153.0000
25.5072	150.0000
25.5165	134.0000
25.5257	127.0000
25.5349	155.0000
25.5441	134.0000
25.5534	144.0000
25.5626	145.0000
25.5718	151.0000
25.5810	159.0000
25.5902	148.0000
25.5995	159.0000
25.6087	158.0000
25.6179	160.0000
25.6271	145.0000
25.6364	146.0000
25.6456	152.0000
25.6548	135.0000
25.6640	138.0000
25.6732	144.0000
25.6825	153.0000
25.6917	179.0000
25.7009	155.0000
25.7101	165.0000
25.7194	158.0000
25.7286	134.0000
25.7378	157.0000
25.7470	125.0000
25.7562	182.0000
25.7655	139.0000
25.7747	143.0000
25.7839	138.0000
25.7931	144.0000
25.8024	147.0000
25.8116	145.0000
25.8208	147.0000
25.8300	153.0000
25.8393	132.0000
25.8485	141.0000
25.8577	176.0000
25.8669	179.0000
25.8761	152.0000
25.8854	151.0000
25.8946	133.0000
25.9038	152.0000
25.9130	167.0000
25.9223	171.0000
25.9315	143.0000
25.9407	145.0000
25.9499	174.0000
25.9591	135.0000
25.9684	163.0000
25.9776	169.0000
25.9868	162.0000
25.9960	177.0000
26.0053	153.0000
26.0145	149.0000
26.0237	148.0000
26.0329	139.0000
26.0422	158.0000
26.0514	152.0000
26.0606	136.0000
26.0698	129.0000
26.0790	164.0000
26.0883	147.0000
26.0975	171.0000
26.1067	157.0000
26.1159	147.0000
26.1252	157.0000
26.1344	115.0000
26.1436	150.0000
26.1528	139.0000
26.1620	147.0000
26.1713	148.0000
26.1805	153.0000
26.1897	156.0000
26.1989	169.0000
26.2082	148.0000
26.2174	164.0000
26.2266	158.0000
26.2358	149.0000
26.2451	186.0000
26.2543	148.0000
26.2635	157.0000
26.2727	153.0000
26.2819	165.0000
26.2912	170.0000
26.3004	156.0000
26.3096	167.0000
26.3188	137.0000
26.3281	130.0000
26.3373	182.0000
26.3465	150.0000
26.3557	144.0000
26.3649	179.0000
26.3742	172.0000
26.3834	150.0000
26.3926	184.0000
26.4018	151.0000
26.4111	161.0000
26.4203	152.0000
26.4295	167.0000
26.4387	137.0000
26.4479	156.0000
26.4572	138.0000
26.4664	140.0000
26.4756	177.0000
26.4848	137.0000
26.4941	165.0000
26.5033	161.0000
26.5125	165.0000
26.5217	143.0000
26.5310	182.0000
26.5402	170.0000
26.5494	150.0000
26.5586	167.0000
26.5678	154.0000
26.5771	158.0000
26.5863	156.0000
26.5955	164.0000
26.6047	160.0000
26.6140	157.0000
26.6232	156.0000
26.6324	172.0000
26.6416	140.0000
26.6508	162.0000
26.6601	138.0000
26.6693	152.0000
26.6785	174.0000
26.6877	162.0000
26.6970	168.0000
26.7062	162.0000
26.7154	152.0000
26.7246	162.0000
26.7339	146.0000
26.7431	136.0000
26.7523	154.0000
26.7615	167.0000
26.7707	163.0000
26.7800	167.0000
26.7892	146.0000
26.7984	154.0000
26.8076	165.0000
26.8169	164.0000
26.8261	158.0000
26.8353	130.0000
26.8445	159.0000
26.8537	163.0000
26.8630	139.0000
26.8722	177.0000
26.8814	136.0000
26.8906	162.0000
26.8999	172.0000
26.9091	157.0000
26.9183	155.0000
26.9275	146.0000
26.9367	176.0000
26.9460	179.0000
26.9552	151.0000
26.9644	131.0000
26.9736	153.0000
26.9829	144.0000
26.9921	155.0000
27.0013	154.0000
27.0105	160.0000
27.0198	157.0000
27.0290	179.0000
27.0382	179.0000
27.0474	150.0000
27.0566	142.0000
27.0659	163.0000
27.0751	140.0000
27.0843	152.0000
27.0935	157.0000
27.1028	169.0000
27.1120	169.0000
27.1212	170.0000
27.1304	146.0000
27.1396	155.0000
27.1489	127.0000
27.1581	168.0000
27.1673	159.0000
27.1765	170.0000
27.1858	185.0000
27.1950	152.0000
27.2042	155.0000
27.2134	168.0000
27.2227	163.0000
27.2319	149.0000
27.2411	160.0000
27.2503	132.0000
27.2595	167.0000
27.2688	151.0000
27.2780	189.0000
27.2872	158.0000
27.2964	155.0000
27.3057	185.0000
27.3149	160.0000
27.3241	169.0000
27.3333	142.0000
27.3425	169.0000
27.3518	161.0000
27.3610	131.0000
27.3702	158.0000
27.3794	134.0000
27.3887	149.0000
27.3979	162.0000
27.4071	153.0000
27.4163	189.0000
27.4256	164.0000
27.4348	178.0000
27.4440	162.0000
27.4532	162.0000
27.4624	170.0000
27.4717	175.0000
27.4809	151.0000
27.4901	156.0000
27.4993	158.0000
27.5086	180.0000
27.5178	167.0000
27.5270	154.0000
27.5362	161.0000
27.5454	172.0000
27.5547	176.0000
27.5639	187.0000
27.5731	151.0000
27.5823	174.0000
27.5916	166.0000
27.6008	175.0000
27.6100	143.0000
27.6192	160.0000
27.6284	140.0000
27.6377	179.0000
27.6469	165.0000
27.6561	169.0000
27.6653	171.0000
27.6746	159.0000
27.6838	167.0000
27.6930	183.0000
27.7022	155.0000
27.7115	178.0000
27.7207	184.0000
27.7299	147.0000
27.7391	168.0000
27.7483	159.0000
27.7576	164.0000
27.7668	159.0000
27.7760	159.0000
27.7852	186.0000
27.7945	162.0000
27.8037	180.0000
27.8129	184.0000
27.8221	150.0000
27.8313	163.0000
27.8406	177.0000
27.8498	149.0000
27.8590	176.0000
27.8682	167.0000
27.8775	163.0000
27.8867	187.0000
27.8959	151.0000
27.9051	151.0000
27.9144	141.0000
27.9236	166.0000
27.9328	159.0000
27.9420	173.0000
27.9512	183.0000
27.9605	155.0000
27.9697	166.0000
27.9789	156.0000
27.9881	164.0000
27.9974	156.0000
28.0066	153.0000
28.0158	169.0000
28.0250	164.0000
28.0342	175.0000
28.0435	182.0000
28.0527	181.0000
28.0619	165.0000
28.0711	164.0000
28.0804	171.0000
28.0896	173.0000
28.0988	169.0000
28.1080	162.0000
28.1172	158.0000
28.1265	145.0000
28.1357	162.0000
28.1449	150.0000
28.1541	177.0000
28.1634	155.0000
28.1726	180.0000
28.1818	152.0000
28.1910	157.0000
28.2003	172.0000
28.2095	152.0000
28.2187	198.0000
28.2279	166.0000
28.2371	159.0000
28.2464	163.0000
28.2556	174.0000
28.2648	165.0000
28.2740	154.0000
28.2833	184.0000
28.2925	187.0000
28.3017	165.0000
28.3109	167.0000
28.3201	152.0000
28.3294	164.0000
28.3386	154.0000
28.3478	177.0000
28.3570	175.0000
28.3663	166.0000
28.3755	168.0000
28.3847	170.0000
28.3939	161.0000
28.4032	177.0000
28.4124	153.0000
28.4216	157.0000
28.4308	171.0000
28.4400	165.0000
28.4493	171.0000
28.4585	167.0000
28.4677	155.0000
28.4769	162.0000
28.4862	182.0000
28.4954	142.0000
28.5046	189.0000
28.5138	186.0000
28.5230	170.0000
28.5323	172.0000
28.5415	174.0000
28.5507	178.0000
28.5599	180.0000
28.5692	183.0000
28.5784	167.0000
28.5876	179.0000
28.5968	165.0000
28.6061	168.0000
28.6153	177.0000
28.6245	174.0000
28.6337	160.0000
28.6429	156.0000
28.6522	143.0000
28.6614	153.0000
28.6706	153.0000
28.6798	161.0000
28.6891	173.0000
28.6983	190.0000
28.7075	183.0000
28.7167	164.0000
28.7259	176.0000
28.7352	164.0000
28.7444	161.0000
28.7536	165.0000
28.7628	149.0000
28.7721	181.0000
28.7813	161.0000
28.7905	177.0000
28.7997	166.0000
28.8089	183.0000
28.8182	140.0000
28.8274	171.0000
28.8366	152.0000
28.8458	163.0000
28.8551	160.0000
28.8643	166.0000
28.8735	168.0000
28.8827	148.0000
28.8920	163.0000
28.9012	164.0000
28.9104	165.0000
28.9196	159.0000
28.9288	195.0000
28.9381	182.0000
28.9473	169.0000
28.9565	188.0000
28.9657	162.0000
28.9750	136.0000
28.9842	169.0000
28.9934	156.0000
29.0026	168.0000
29.0118	166.0000
29.0211	148.0000
29.0303	174.0000
29.0395	161.0000
29.0487	174.0000
29.0580	165.0000
29.0672	160.0000
29.0764	188.0000
29.0856	191.0000
29.0949	184.0000
29.1041	188.0000
29.1133	172.0000
29.1225	185.0000
29.1317	176.0000
29.1410	172.0000
29.1502	185.0000
29.1594	166.0000
29.1686	179.0000
29.1779	162.0000
29.1871	164.0000
29.1963	153.0000
29.2055	165.0000
29.2147	184.0000
29.2240	184.0000
29.2332	176.0000
29.2424	161.0000
29.2516	179.0000
29.2609	185.0000
29.2701	180.0000
29.2793	184.0000
29.2885	196.0000
29.2977	159.0000
29.3070	167.0000
29.3162	181.0000
29.3254	176.0000
29.3346	189.0000
29.3439	146.0000
29.3531	166.0000
29.3623	187.0000
29.3715	168.0000
29.3808	174.0000
29.3900	146.0000
29.3992	184.0000
29.4084	155.0000
29.4176	189.0000
29.4269	173.0000
29.4361	187.0000
29.4453	185.0000
29.4545	164.0000
29.4638	171.0000
29.4730	161.0000
29.4822	161.0000
29.4914	178.0000
29.5006	178.0000
29.5099	152.0000
29.5191	196.0000
29.5283	165.0000
29.5375	184.0000
29.5468	198.0000
29.5560	164.0000
29.5652	199.0000
29.5744	184.0000
29.5837	174.0000
29.5929	174.0000
29.6021	172.0000
29.6113	194.0000
29.6205	166.0000
29.6298	188.0000
29.6390	188.0000
29.6482	191.0000
29.6574	176.0000
29.6667	154.0000
29.6759	173.0000
29.6851	190.0000
29.6943	151.0000
29.7035	154.0000
29.7128	162.0000
29.7220	188.0000
29.7312	175.0000
29.7404	162.0000
29.7497	190.0000
29.7589	193.0000
29.7681	181.0000
29.7773	163.0000
29.7866	175.0000
29.7958	172.0000
29.8050	195.0000
29.8142	191.0000
29.8234	183.0000
29.8327	158.0000
29.8419	169.0000
29.8511	159.0000
29.8603	177.0000
29.8696	180.0000
29.8788	185.0000
29.8880	179.0000
29.8972	165.0000
29.9064	185.0000
29.9157	175.0000
29.9249	178.0000
29.9341	161.0000
29.9433	177.0000
29.9526	167.0000
29.9618	174.0000
29.9710	209.0000
29.9802	211.0000
29.9894	169.0000
29.9987	173.0000
30.0079	186.0000
30.0171	185.0000
30.0263	164.0000
30.0356	171.0000
30.0448	173.0000
30.0540	172.0000
30.0632	191.0000
30.0725	163.0000
30.0817	141.0000
30.0909	189.0000
30.1001	149.0000
30.1093	161.0000
30.1186	194.0000
30.1278	171.0000
30.1370	175.0000
30.1462	194.0000
30.1555	178.0000
30.1647	181.0000
30.1739	192.0000
30.1831	164.0000
30.1923	194.0000
30.2016	197.0000
30.2108	202.0000
30.2200	196.0000
30.2292	213.0000
30.2385	228.0000
30.2477	240.0000
30.2569	272.0000
30.2661	358.0000
30.2754	487.0000
30.2846	715.0000
30.2938	939.0000
30.3030	1166.0000
30.3122	1172.0000
30.3215	1039.0000
30.3307	753.0000
30.3399	490.0000
30.3491	364.0000
30.3584	286.0000
30.3676	258.0000
30.3768	212.0000
30.3860	210.0000
30.3952	218.0000
30.4045	238.0000
30.4137	194.0000
30.4229	239.0000
30.4321	206.0000
30.4414	230.0000
30.4506	270.0000
30.4598	378.0000
30.4690	517.0000
30.4782	590.0000
30.4875	650.0000
30.4967	675.0000
30.5059	588.0000
30.5151	422.0000
30.5244	304.0000
30.5336	291.0000
30.5428	243.0000
30.5520	176.0000
30.5613	183.0000
30.5705	186.0000
30.5797	171.0000
30.5889	209.0000
30.5981	164.0000
30.6074	183.0000
30.6166	177.0000
30.6258	175.0000
30.6350	179.0000
30.6443	183.0000
30.6535	174.0000
30.6627	178.0000
30.6719	183.0000
30.6811	183.0000
30.6904	177.0000
30.6996	160.0000
30.7088	197.0000
30.7180	181.0000
30.7273	179.0000
30.7365	169.0000
30.7457	185.0000
30.7549	178.0000
30.7642	184.0000
30.7734	178.0000
30.7826	177.0000
30.7918	176.0000
30.8010	155.0000
30.8103	150.0000
30.8195	168.0000
30.8287	177.0000
30.8379	181.0000
30.8472	165.0000
30.8564	192.0000
30.8656	176.0000
30.8748	188.0000
30.8840	184.0000
30.8933	166.0000
30.9025	182.0000
30.9117	157.0000
30.9209	167.0000
30.9302	181.0000
30.9394	195.0000
30.9486	174.0000
30.9578	169.0000
30.9671	164.0000
30.9763	193.0000
30.9855	186.0000
30.9947	177.0000
31.0039	175.0000
31.0132	159.0000
31.0224	168.0000
31.0316	163.0000
31.0408	172.0000
31.0501	155.0000
31.0593	173.0000
31.0685	176.0000
31.0777	153.0000
31.0869	181.0000
31.0962	171.0000
31.1054	171.0000
31.1146	151.0000
31.1238	159.0000
31.1331	164.0000
31.1423	157.0000
31.1515	154.0000
31.1607	176.0000
31.1699	186.0000
31.1792	170.0000
31.1884	186.0000
31.1976	187.0000
31.2068	160.0000
31.2161	191.0000
31.2253	144.0000
31.2345	160.0000
31.2437	173.0000
31.2530	175.0000
31.2622	162.0000
31.2714	145.0000
31.2806	176.0000
31.2898	173.0000
31.2991	162.0000
31.3083	160.0000
31.3175	188.0000
31.3267	172.0000
31.3360	162.0000
31.3452	176.0000
31.3544	159.0000
31.3636	181.0000
31.3728	155.0000
31.3821	163.0000
31.3913	185.0000
31.4005	156.0000
31.4097	177.0000
31.4190	171.0000
31.4282	152.0000
31.4374	147.0000
31.4466	166.0000
31.4559	159.0000
31.4651	162.0000
31.4743	210.0000
31.4835	164.0000
31.4927	161.0000
31.5020	152.0000
31.5112	170.0000
31.5204	156.0000
31.5296	160.0000
31.5389	163.0000
31.5481	146.0000
31.5573	145.0000
31.5665	163.0000
31.5757	161.0000
31.5850	189.0000
31.5942	163.0000
31.6034	180.0000
31.6126	152.0000
31.6219	181.0000
31.6311	158.0000
31.6403	157.0000
31.6495	160.0000
31.6587	175.0000
31.6680	170.0000
31.6772	163.0000
31.6864	144.0000
31.6956	169.0000
31.7049	168.0000
31.7141	182.0000
31.7233	179.0000
31.7325	183.0000
31.7418	161.0000
31.7510	160.0000
31.7602	188.0000
31.7694	166.0000
31.7786	176.0000
31.7879	180.0000
31.7971	164.0000
31.8063	168.0000
31.8155	179.0000
31.8248	164.0000
31.8340	165.0000
31.8432	184.0000
31.8524	179.0000
31.8616	182.0000
31.8709	159.0000
31.8801	156.0000
31.8893	177.0000
31.8985	148.0000
31.9078	160.0000
31.9170	171.0000
31.9262	137.0000
31.9354	162.0000
31.9447	159.0000
31.9539	173.0000
31.9631	170.0000
31.9723	170.0000
31.9815	180.0000
31.9908	161.0000
32.0000	162.0000
32.0092	151.0000
32.0184	165.0000
32.0277	176.0000
32.0369	160.0000
32.0461	184.0000
32.0553	172.0000
32.0645	158.0000
32.0738	180.0000
32.0830	176.0000
32.0922	174.0000
32.1014	186.0000
32.1107	176.0000
32.1199	157.0000
32.1291	137.0000
32.1383	184.0000
32.1476	160.0000
32.1568	170.0000
32.1660	195.0000
32.1752	169.0000
32.1844	167.0000
32.1937	196.0000
32.2029	162.0000
32.2121	153.0000
32.2213	172.0000
32.2306	173.0000
32.2398	193.0000
32.2490	160.0000
32.2582	176.0000
32.2674	154.0000
32.2767	161.0000
32.2859	168.0000
32.2951	166.0000
32.3043	167.0000
32.3136	172.0000
32.3228	157.0000
32.3320	152.0000
32.3412	165.0000
32.3504	148.0000
32.3597	180.0000
32.3689	168.0000
32.3781	156.0000
32.3873	173.0000
32.3966	181.0000
32.4058	171.0000
32.4150	164.0000
32.4242	168.0000
32.4335	167.0000
32.4427	151.0000
32.4519	176.0000
32.4611	179.0000
32.4703	183.0000
32.4796	156.0000
32.4888	160.0000
32.4980	167.0000
32.5072	156.0000
32.5165	156.0000
32.5257	167.0000
32.5349	180.0000
32.5441	156.0000
32.5533	156.0000
32.5626	182.0000
32.5718	176.0000
32.5810	155.0000
32.5902	156.0000
32.5995	171.0000
32.6087	160.0000
32.6179	143.0000
32.6271	175.0000
32.6364	170.0000
32.6456	156.0000
32.6548	193.0000
32.6640	164.0000
32.6732	169.0000
32.6825	169.0000
32.6917	157.0000
32.7009	208.0000
32.7101	145.0000
32.7194	163.0000
32.7286	171.0000
32.7378	157.0000
32.7470	183.0000
32.7562	163.0000
32.7655	158.0000
32.7747	170.0000
32.7839	176.0000
32.7931	164.0000
32.8024	172.0000
32.8116	187.0000
32.8208	160.0000
32.8300	147.0000
32.8392	165.0000
32.8485	183.0000
32.8577	152.0000
32.8669	156.0000
32.8761	173.0000
32.8854	160.0000
32.8946	172.0000
32.9038	166.0000
32.9130	172.0000
32.9223	161.0000
32.9315	166.0000
32.9407	166.0000
32.9499	172.0000
32.9591	167.0000
32.9684	177.0000
32.9776	140.0000
32.9868	165.0000
32.9960	154.0000
33.0053	157.0000
33.0145	162.0000
33.0237	175.0000
33.0329	160.0000
33.0421	152.0000
33.0514	186.0000
33.0606	175.0000
33.0698	152.0000
33.0790	159.0000
33.0883	179.0000
33.0975	158.0000
33.1067	167.0000
33.1159	172.0000
33.1252	162.0000
33.1344	176.0000
33.1436	177.0000
33.1528	167.0000
33.1620	141.0000
33.1713	185.0000
33.1805	153.0000
33.1897	169.0000
33.1989	192.0000
33.2082	181.0000
33.2174	163.0000
33.2266	142.0000
33.2358	159.0000
33.2450	171.0000
33.2543	191.0000
33.2635	156.0000
33.2727	157.0000
33.2819	164.0000
33.2912	160.0000
33.3004	157.0000
33.3096	162.0000
33.3188	141.0000
33.3281	175.0000
33.3373	153.0000
33.3465	172.0000
33.3557	186.0000
33.3649	164.0000
33.3742	168.0000
33.3834	183.0000
33.3926	160.0000
33.4018	133.0000
33.4111	180.0000
33.4203	128.0000
33.4295	169.0000
33.4387	181.0000
33.4479	169.0000
33.4572	157.0000
33.4664	165.0000
33.4756	161.0000
33.4848	159.0000
33.4941	171.0000
33.5033	174.0000
33.5125	152.0000
33.5217	157.0000
33.5309	148.0000
33.5402	154.0000
33.5494	169.0000
33.5586	145.0000
33.5678	171.0000
33.5771	145.0000
33.5863	172.0000
33.5955	166.0000
33.6047	166.0000
33.6140	165.0000
33.6232	144.0000
33.6324	137.0000
33.6416	188.0000
33.6508	153.0000
33.6601	177.0000
33.6693	150.0000
33.6785	138.0000
33.6877	167.0000
33.6970	181.0000
33.7062	178.0000
33.7154	173.0000
33.7246	168.0000
33.7338	161.0000
33.7431	166.0000
33.7523	155.0000
33.7615	167.0000
33.7707	145.0000
33.7800	167.0000
33.7892	153.0000
33.7984	161.0000
33.8076	175.0000
33.8169	148.0000
33.8261	161.0000
33.8353	186.0000
33.8445	155.0000
33.8537	169.0000
33.8630	181.0000
33.8722	154.0000
33.8814	174.0000
33.8906	121.0000
33.8999	143.0000
33.9091	167.0000
33.9183	150.0000
33.9275	160.0000
33.9367	168.0000
33.9460	160.0000
33.9552	178.0000
33.9644	143.0000
33.9736	169.0000
33.9829	173.0000
33.9921	169.0000
34.0013	158.0000
34.0105	146.0000
34.0197	178.0000
34.0290	155.0000
34.0382	188.0000
34.0474	176.0000
34.0566	169.0000
34.0659	170.0000
34.0751	168.0000
34.0843	179.0000
34.0935	180.0000
34.1028	180.0000
34.1120	162.0000
34.1212	172.0000
34.1304	162.0000
34.1396	154.0000
34.1489	156.0000
34.1581	159.0000
34.1673	175.0000
34.1765	141.0000
34.1858	156.0000
34.1950	162.0000
34.2042	166.0000
34.2134	157.0000
34.2226	148.0000
34.2319	153.0000
34.2411	147.0000
34.2503	155.0000
34.2595	164.0000
34.2688	177.0000
34.2780	160.0000
34.2872	180.0000
34.2964	154.0000
34.3057	161.0000
34.3149	160.0000
34.3241	157.0000
34.3333	141.0000
34.3425	140.0000
34.3518	151.0000
34.3610	175.0000
34.3702	167.0000
34.3794	152.0000
34.3887	142.0000
34.3979	171.0000
34.4071	148.0000
34.4163	153.0000
34.4255	136.0000
34.4348	170.0000
34.4440	164.0000
34.4532	158.0000
34.4624	160.0000
34.4717	176.0000
34.4809	147.0000
34.4901	142.0000
34.4993	154.0000
34.5086	147.0000
34.5178	152.0000
34.5270	149.0000
34.5362	151.0000
34.5454	136.0000
34.5547	138.0000
34.5639	165.0000
34.5731	151.0000
34.5823	162.0000
34.5916	139.0000
34.6008	157.0000
34.6100	155.0000
34.6192	179.0000
34.6284	150.0000
34.6377	146.0000
34.6469	148.0000
34.6561	152.0000
34.6653	164.0000
34.6746	132.0000
34.6838	173.0000
34.6930	167.0000
34.7022	142.0000
34.7114	151.0000
34.7207	154.0000
34.7299	152.0000
34.7391	147.0000
34.7483	158.0000
34.7576	124.0000
34.7668	142.0000
34.7760	148.0000
34.7852	156.0000
34.7945	142.0000
34.8037	154.0000
34.8129	131.0000
34.8221	135.0000
34.8313	141.0000
34.8406	147.0000
34.8498	160.0000
34.8590	168.0000
34.8682	161.0000
34.8775	153.0000
34.8867	138.0000
34.8959	152.0000
34.9051	136.0000
34.9143	150.0000
34.9236	143.0000
34.9328	137.0000
34.9420	133.0000
34.9512	137.0000
34.9605	153.0000
34.9697	117.0000
34.9789	162.0000
34.9881	158.0000
34.9974	157.0000
35.0066	161.0000
35.0158	134.0000
35.0250	131.0000
35.0342	135.0000
35.0435	150.0000
35.0527	143.0000
35.0619	153.0000
35.0711	159.0000
35.0804	150.0000
35.0896	145.0000
35.0988	145.0000
35.1080	150.0000
35.1172	146.0000
35.1265	157.0000
35.1357	141.0000
35.1449	132.0000
35.1541	147.0000
35.1634	158.0000
35.1726	158.0000
35.1818	131.0000
35.1910	160.0000
35.2002	120.0000
35.2095	134.0000
35.2187	145.0000
35.2279	136.0000
35.2371	147.0000
35.2464	127.0000
35.2556	130.0000
35.2648	143.0000
35.2740	164.0000
35.2833	144.0000
35.2925	135.0000
35.3017	122.0000
35.3109	145.0000
35.3201	138.0000
35.3294	125.0000
35.3386	160.0000
35.3478	148.0000
35.3570	138.0000
35.3663	119.0000
35.3755	124.0000
35.3847	142.0000
35.3939	130.0000
35.4031	116.0000
35.4124	131.0000
35.4216	120.0000
35.4308	138.0000
35.4400	110.0000
35.4493	141.0000
35.4585	128.0000
35.4677	120.0000
35.4769	122.0000
35.4862	139.0000
35.4954	120.0000
35.5046	125.0000
35.5138	133.0000
35.5230	148.0000
35.5323	124.0000
35.5415	121.0000
35.5507	147.0000
35.5599	136.0000
35.5692	114.0000
35.5784	115.0000
35.5876	137.0000
35.5968	115.0000
35.6060	116.0000
35.6153	136.0000
35.6245	124.0000
35.6337	142.0000
35.6429	137.0000
35.6522	137.0000
35.6614	120.0000
35.6706	143.0000
35.6798	122.0000
35.6891	129.0000
35.6983	114.0000
35.7075	122.0000
35.7167	141.0000
35.7259	125.0000
35.7352	116.0000
35.7444	117.0000
35.7536	136.0000
35.7628	103.0000
35.7721	120.0000
35.7813	131.0000
35.7905	124.0000
35.7997	129.0000
35.8089	132.0000
35.8182	125.0000
35.8274	127.0000
35.8366	127.0000
35.8458	132.0000
35.8551	126.0000
35.8643	115.0000
35.8735	118.0000
35.8827	122.0000
35.8919	113.0000
35.9012	115.0000
35.9104	140.0000
35.9196	104.0000
35.9288	148.0000
35.9381	124.0000
35.9473	122.0000
35.9565	136.0000
35.9657	132.0000
35.9750	121.0000
35.9842	120.0000
35.9934	102.0000
36.0026	124.0000
36.0118	115.0000
36.0211	142.0000
36.0303	140.0000
36.0395	111.0000
36.0487	125.0000
36.0580	129.0000
36.0672	133.0000
36.0764	104.0000
36.0856	112.0000
36.0948	125.0000
36.1041	114.0000
36.1133	105.0000
36.1225	126.0000
36.1317	118.0000
36.1410	112.0000
36.1502	116.0000
36.1594	127.0000
36.1686	121.0000
36.1779	99.0000
36.1871	123.0000
36.1963	118.0000
36.2055	119.0000
36.2147	130.0000
36.2240	124.0000
36.2332	128.0000
36.2424	111.0000
36.2516	116.0000
36.2609	113.0000
36.2701	113.0000
36.2793	131.0000
36.2885	102.0000
36.2977	108.0000
36.3070	117.0000
36.3162	114.0000
36.3254	115.0000
36.3346	112.0000
36.3439	113.0000
36.3531	129.0000
36.3623	144.0000
36.3715	117.0000
36.3807	124.0000
36.3900	122.0000
36.3992	133.0000
36.4084	129.0000
36.4176	103.0000
36.4269	99.0000
36.4361	119.0000
36.4453	109.0000
36.4545	124.0000
36.4638	114.0000
36.4730	111.0000
36.4822	111.0000
36.4914	129.0000
36.5006	119.0000
36.5099	119.0000
36.5191	112.0000
36.5283	111.0000
36.5375	103.0000
36.5468	114.0000
36.5560	110.0000
36.5652	108.0000
36.5744	101.0000
36.5836	117.0000
36.5929	117.0000
36.6021	99.0000
36.6113	97.0000
36.6205	121.0000
36.6298	117.0000
36.6390	103.0000
36.6482	95.0000
36.6574	129.0000
36.6667	113.0000
36.6759	101.0000
36.6851	109.0000
36.6943	89.0000
36.7035	89.0000
36.7128	112.0000
36.7220	95.0000
36.7312	96.0000
36.7404	96.0000
36.7497	104.0000
36.7589	102.0000
36.7681	105.0000
36.7773	102.0000
36.7865	130.0000
36.7958	94.0000
36.8050	121.0000
36.8142	101.0000
36.8234	112.0000
36.8327	95.0000
36.8419	104.0000
36.8511	121.0000
36.8603	103.0000
36.8696	84.0000
36.8788	93.0000
36.8880	111.0000
36.8972	89.0000
36.9064	115.0000
36.9157	99.0000
36.9249	108.0000
36.9341	106.0000
36.9433	111.0000
36.9526	87.0000
36.9618	107.0000
36.9710	106.0000
36.9802	102.0000
36.9894	91.0000
36.9987	105.0000
37.0079	98.0000
37.0171	111.0000
37.0263	127.0000
37.0356	83.0000
37.0448	101.0000
37.0540	97.0000
37.0632	98.0000
37.0724	108.0000
37.0817	107.0000
37.0909	106.0000
37.1001	101.0000
37.1093	123.0000
37.1186	98.0000
37.1278	90.0000
37.1370	101.0000
37.1462	98.0000
37.1555	124.0000
37.1647	94.0000
37.1739	91.0000
37.1831	95.0000
37.1923	81.0000
37.2016	111.0000
37.2108	111.0000
37.2200	106.0000
37.2292	108.0000
37.2385	105.0000
37.2477	100.0000
37.2569	85.0000
37.2661	106.0000
37.2753	103.0000
37.2846	105.0000
37.2938	105.0000
37.3030	97.0000
37.3122	116.0000
37.3215	98.0000
37.3307	125.0000
37.3399	89.0000
37.3491	99.0000
37.3584	91.0000
37.3676	83.0000
37.3768	103.0000
37.3860	97.0000
37.3952	86.0000
37.4045	100.0000
37.4137	94.0000
37.4229	92.0000
37.4321	99.0000
37.4414	92.0000
37.4506	104.0000
37.4598	81.0000
37.4690	70.0000
37.4782	97.0000
37.4875	98.0000
37.4967	93.0000
37.5059	101.0000
37.5151	109.0000
37.5244	113.0000
37.5336	96.0000
37.5428	74.0000
37.5520	106.0000
37.5612	110.0000
37.5705	98.0000
37.5797	88.0000
37.5889	88.0000
37.5981	110.0000
37.6074	89.0000
37.6166	95.0000
37.6258	101.0000
37.6350	90.0000
37.6443	86.0000
37.6535	85.0000
37.6627	87.0000
37.6719	107.0000
37.6811	94.0000
37.6904	106.0000
37.6996	91.0000
37.7088	112.0000
37.7180	82.0000
37.7273	82.0000
37.7365	96.0000
37.7457	100.0000
37.7549	89.0000
37.7641	107.0000
37.7734	94.0000
37.7826	103.0000
37.7918	83.0000
37.8010	93.0000
37.8103	78.0000
37.8195	97.0000
37.8287	94.0000
37.8379	106.0000
37.8472	92.0000
37.8564	77.0000
37.8656	83.0000
37.8748	95.0000
37.8840	94.0000
37.8933	72.0000
37.9025	96.0000
37.9117	81.0000
37.9209	91.0000
37.9302	83.0000
37.9394	88.0000
37.9486	80.0000
37.9578	83.0000
37.9670	109.0000
37.9763	83.0000
37.9855	99.0000
37.9947	92.0000
38.0039	73.0000
38.0132	90.0000
38.0224	90.0000
38.0316	99.0000
38.0408	93.0000
38.0501	101.0000
38.0593	87.0000
38.0685	113.0000
38.0777	74.0000
38.0869	85.0000
38.0962	95.0000
38.1054	93.0000
38.1146	92.0000
38.1238	95.0000
38.1331	82.0000
38.1423	79.0000
38.1515	96.0000
38.1607	82.0000
38.1699	84.0000
38.1792	76.0000
38.1884	99.0000
38.1976	74.0000
38.2068	82.0000
38.2161	84.0000
38.2253	92.0000
38.2345	86.0000
38.2437	84.0000
38.2529	86.0000
38.2622	89.0000
38.2714	70.0000
38.2806	105.0000
38.2898	98.0000
38.2991	78.0000
38.3083	91.0000
38.3175	65.0000
38.3267	79.0000
38.3360	105.0000
38.3452	90.0000
38.3544	84.0000
38.3636	88.0000
38.3728	87.0000
38.3821	89.0000
38.3913	95.0000
38.4005	95.0000
38.4097	91.0000
38.4190	89.0000
38.4282	92.0000
38.4374	82.0000
38.4466	83.0000
38.4558	88.0000
38.4651	84.0000
38.4743	76.0000
38.4835	80.0000
38.4927	89.0000
38.5020	72.0000
38.5112	110.0000
38.5204	91.0000
38.5296	87.0000
38.5389	91.0000
38.5481	99.0000
38.5573	89.0000
38.5665	87.0000
38.5757	69.0000
38.5850	102.0000
38.5942	100.0000
38.6034	94.0000
38.6126	97.0000
38.6219	80.0000
38.6311	76.0000
38.6403	86.0000
38.6495	84.0000
38.6587	75.0000
38.6680	78.0000
38.6772	94.0000
38.6864	83.0000
38.6956	65.0000
38.7049	84.0000
38.7141	76.0000
38.7233	63.0000
38.7325	94.0000
38.7417	92.0000
38.7510	91.0000
38.7602	86.0000
38.7694	83.0000
38.7786	100.0000
38.7879	76.0000
38.7971	75.0000
38.8063	85.0000
38.8155	81.0000
38.8248	76.0000
38.8340	74.0000
38.8432	75.0000
38.8524	74.0000
38.8616	96.0000
38.8709	87.0000
38.8801	91.0000
38.8893	74.0000
38.8985	77.0000
38.9078	74.0000
38.9170	83.0000
38.9262	89.0000
38.9354	90.0000
38.9446	80.0000
38.9539	94.0000
38.9631	87.0000
38.9723	88.0000
38.9815	78.0000
38.9908	99.0000
39.0000	81.0000
39.0092	90.0000
39.0184	96.0000
39.0277	79.0000
39.0369	76.0000
39.0461	96.0000
39.0553	87.0000
39.0645	101.0000
39.0738	80.0000
39.0830	67.0000
39.0922	92.0000
39.1014	80.0000
39.1107	62.0000
39.1199	84.0000
39.1291	84.0000
39.1383	87.0000
39.1475	94.0000
39.1568	81.0000
39.1660	76.0000
39.1752	73.0000
39.1844	96.0000
39.1937	81.0000
39.2029	77.0000
39.2121	74.0000
39.2213	74.0000
39.2306	95.0000
39.2398	103.0000
39.2490	81.0000
39.2582	85.0000
39.2674	115.0000
39.2767	89.0000
39.2859	88.0000
39.2951	82.0000
39.3043	81.0000
39.3136	86.0000
39.3228	95.0000
39.3320	76.0000
39.3412	89.0000
39.3504	86.0000
39.3597	95.0000
39.3689	84.0000
39.3781	81.0000
39.3873	94.0000
39.3966	93.0000
39.4058	84.0000
39.4150	84.0000
39.4242	84.0000
39.4334	85.0000
39.4427	88.0000
39.4519	92.0000
39.4611	76.0000
39.4703	99.0000
39.4796	81.0000
39.4888	92.0000
39.4980	92.0000
39.5072	81.0000
39.5165	77.0000
39.5257	80.0000
39.5349	91.0000
39.5441	69.0000
39.5533	77.0000
39.5626	81.0000
39.5718	84.0000
39.5810	74.0000
39.5902	80.0000
39.5995	86.0000
39.6087	99.0000
39.6179	90.0000
39.6271	61.0000
39.6363	90.0000
39.6456	95.0000
39.6548	91.0000
39.6640	70.0000
39.6732	90.0000
39.6825	76.0000
39.6917	95.0000
39.7009	85.0000
39.7101	76.0000
39.7194	57.0000
39.7286	89.0000
39.7378	81.0000
39.7470	87.0000
39.7562	75.0000
39.7655	62.0000
39.7747	70.0000
39.7839	89.0000
39.7931	93.0000
39.8024	77.0000
39.8116	103.0000
39.8208	92.0000
39.8300	95.0000
39.8392	81.0000
39.8485	84.0000
39.8577	80.0000
39.8669	94.0000
39.8761	84.0000
39.8854	78.0000
39.8946	90.0000
39.9038	92.0000
39.9130	87.0000
39.9222	82.0000
39.9315	88.0000
39.9407	64.0000
39.9499	100.0000
39.9591	78.0000
39.9684	72.0000
39.9776	75.0000
39.9868	86.0000
39.9960	80.0000
40.0053	94.0000
40.0145	82.0000
40.0237	79.0000
40.0329	90.0000
40.0421	91.0000
40.0514	69.0000
40.0606	92.0000
40.0698	96.0000
40.0790	63.0000
40.0883	95.0000
40.0975	90.0000
40.1067	91.0000
40.1159	78.0000
40.1251	92.0000
40.1344	62.0000
40.1436	84.0000
40.1528	82.0000
40.1620	77.0000
40.1713	89.0000
40.1805	80.0000
40.1897	92.0000
40.1989	79.0000
40.2082	71.0000
40.2174	94.0000
40.2266	94.0000
40.2358	87.0000
40.2450	86.0000
40.2543	87.0000
40.2635	99.0000
40.2727	79.0000
40.2819	71.0000
40.2912	88.0000
40.3004	92.0000
40.3096	102.0000
40.3188	78.0000
40.3280	92.0000
40.3373	94.0000
40.3465	97.0000
40.3557	74.0000
40.3649	85.0000
40.3742	88.0000
40.3834	90.0000
40.3926	63.0000
40.4018	91.0000
40.4111	84.0000
40.4203	78.0000
40.4295	85.0000
40.4387	93.0000
40.4479	88.0000
40.4572	93.0000
40.4664	97.0000
40.4756	64.0000
40.4848	94.0000
40.4941	87.0000
40.5033	83.0000
40.5125	78.0000
40.5217	93.0000
40.5309	107.0000
40.5402	73.0000
40.5494	100.0000
40.5586	76.0000
40.5678	93.0000
40.5771	73.0000
40.5863	89.0000
40.5955	88.0000
40.6047	78.0000
40.6139	72.0000
40.6232	95.0000
40.6324	76.0000
40.6416	99.0000
40.6508	69.0000
40.6601	86.0000
40.6693	82.0000
40.6785	79.0000
40.6877	94.0000
40.6970	86.0000
40.7062	89.0000
40.7154	80.0000
40.7246	97.0000
40.7338	95.0000
40.7431	89.0000
40.7523	81.0000
40.7615	84.0000
40.7707	96.0000
40.7800	89.0000
40.7892	84.0000
40.7984	83.0000
40.8076	79.0000
40.8168	73.0000
40.8261	82.0000
40.8353	73.0000
40.8445	81.0000
40.8537	90.0000
40.8630	76.0000
40.8722	85.0000
40.8814	75.0000
40.8906	82.0000
40.8999	88.0000
40.9091	91.0000
40.9183	89.0000
40.9275	96.0000
40.9367	81.0000
40.9460	80.0000
40.9552	78.0000
40.9644	105.0000
40.9736	82.0000
40.9829	88.0000
40.9921	67.0000
41.0013	85.0000
41.0105	73.0000
41.0197	78.0000
41.0290	91.0000
41.0382	81.0000
41.0474	82.0000
41.0566	85.0000
41.0659	85.0000
41.0751	93.0000
41.0843	97.0000
41.0935	97.0000
41.1027	78.0000
41.1120	91.0000
41.1212	94.0000
41.1304	92.0000
41.1396	79.0000
41.1489	74.0000
41.1581	104.0000
41.1673	72.0000
41.1765	84.0000
41.1858	78.0000
41.1950	87.0000
41.2042	90.0000
41.2134	76.0000
41.2226	86.0000
41.2319	89.0000
41.2411	72.0000
41.2503	96.0000
41.2595	72.0000
41.2688	73.0000
41.2780	101.0000
41.2872	83.0000
41.2964	79.0000
41.3056	94.0000
41.3149	87.0000
41.3241	90.0000
41.3333	87.0000
41.3425	87.0000
41.3518	71.0000
41.3610	81.0000
41.3702	73.0000
41.3794	97.0000
41.3887	77.0000
41.3979	100.0000
41.4071	86.0000
41.4163	87.0000
41.4255	93.0000
41.4348	61.0000
41.4440	80.0000
41.4532	80.0000
41.4624	65.0000
41.4717	98.0000
41.4809	80.0000
41.4901	84.0000
41.4993	90.0000
41.5085	59.0000
41.5178	82.0000
41.5270	72.0000
41.5362	85.0000
41.5454	78.0000
41.5547	85.0000
41.5639	76.0000
41.5731	86.0000
41.5823	83.0000
41.5915	80.0000
41.6008	88.0000
41.6100	85.0000
41.6192	81.0000
41.6284	99.0000
41.6377	85.0000
41.6469	80.0000
41.6561	88.0000
41.6653	87.0000
41.6746	84.0000
41.6838	92.0000
41.6930	71.0000
41.7022	95.0000
41.7114	82.0000
41.7207	86.0000
41.7299	81.0000
41.7391	94.0000
41.7483	102.0000
41.7576	78.0000
41.7668	91.0000
41.7760	75.0000
41.7852	73.0000
41.7944	90.0000
41.8037	79.0000
41.8129	92.0000
41.8221	82.0000
41.8313	83.0000
41.8406	87.0000
41.8498	90.0000
41.8590	91.0000
41.8682	92.0000
41.8775	77.0000
41.8867	90.0000
41.8959	82.0000
41.9051	71.0000
41.9143	85.0000
41.9236	110.0000
41.9328	78.0000
41.9420	76.0000
41.9512	70.0000
41.9605	88.0000
41.9697	85.0000
41.9789	83.0000
41.9881	76.0000
41.9973	71.0000
42.0066	82.0000
42.0158	83.0000
42.0250	74.0000
42.0342	94.0000
42.0435	83.0000
42.0527	88.0000
42.0619	88.0000
42.0711	90.0000
42.0804	98.0000
42.0896	102.0000
42.0988	89.0000
42.1080	74.0000
42.1172	71.0000
42.1265	90.0000
42.1357	103.0000
42.1449	78.0000
42.1541	88.0000
42.1634	74.0000
42.1726	103.0000
42.1818	97.0000
42.1910	77.0000
42.2002	83.0000
42.2095	90.0000
42.2187	85.0000
42.2279	80.0000
42.2371	100.0000
42.2464	83.0000
42.2556	76.0000
42.2648	87.0000
42.2740	79.0000
42.2832	73.0000
42.2925	85.0000
42.3017	75.0000
42.3109	89.0000
42.3201	92.0000
42.3294	86.0000
42.3386	71.0000
42.3478	92.0000
42.3570	78.0000
42.3663	79.0000
42.3755	88.0000
42.3847	71.0000
42.3939	75.0000
42.4031	82.0000
42.4124	88.0000
42.4216	83.0000
42.4308	87.0000
42.4400	74.0000
42.4493	95.0000
42.4585	78.0000
42.4677	69.0000
42.4769	86.0000
42.4861	92.0000
42.4954	93.0000
42.5046	89.0000
42.5138	97.0000
42.5230	99.0000
42.5323	73.0000
42.5415	70.0000
42.5507	75.0000
42.5599	75.0000
42.5692	87.0000
42.5784	80.0000
42.5876	63.0000
42.5968	81.0000
42.6060	84.0000
42.6153	81.0000
42.6245	67.0000
42.6337	85.0000
42.6429	95.0000
42.6522	74.0000
42.6614	70.0000
42.6706	90.0000
42.6798	87.0000
42.6890	89.0000
42.6983	86.0000
42.7075	74.0000
42.7167	81.0000
42.7259	82.0000
42.7352	83.0000
42.7444	75.0000
42.7536	98.0000
42.7628	86.0000
42.7720	85.0000
42.7813	100.0000
42.7905	65.0000
42.7997	88.0000
42.8089	79.0000
42.8182	84.0000
42.8274	77.0000
42.8366	80.0000
42.8458	83.0000
42.8551	71.0000
42.8643	89.0000
42.8735	92.0000
42.8827	74.0000
42.8919	101.0000
42.9012	99.0000
42.9104	90.0000
42.9196	95.0000
42.9288	91.0000
42.9381	86.0000
42.9473	93.0000
42.9565	88.0000
42.9657	81.0000
42.9749	83.0000
42.9842	73.0000
42.9934	85.0000
43.0026	92.0000
43.0118	77.0000
43.0211	86.0000
43.0303	89.0000
43.0395	72.0000
43.0487	81.0000
43.0580	80.0000
43.0672	74.0000
43.0764	89.0000
43.0856	87.0000
43.0948	86.0000
43.1041	78.0000
43.1133	73.0000
43.1225	91.0000
43.1317	75.0000
43.1410	95.0000
43.1502	88.0000
43.1594	81.0000
43.1686	59.0000
43.1778	90.0000
43.1871	86.0000
43.1963	89.0000
43.2055	67.0000
43.2147	80.0000
43.2240	84.0000
43.2332	92.0000
43.2424	89.0000
43.2516	85.0000
43.2609	80.0000
43.2701	76.0000
43.2793	89.0000
43.2885	82.0000
43.2977	118.0000
43.3070	81.0000
43.3162	97.0000
43.3254	106.0000
43.3346	110.0000
43.3439	143.0000
43.3531	177.0000
43.3623	231.0000
43.3715	282.0000
43.3807	336.0000
43.3900	365.0000
43.3992	378.0000
43.4084	342.0000
43.4176	303.0000
43.4269	212.0000
43.4361	160.0000
43.4453	155.0000
43.4545	131.0000
43.4637	113.0000
43.4730	99.0000
43.4822	114.0000
43.4914	101.0000
43.5006	85.0000
43.5099	80.0000
43.5191	84.0000
43.5283	91.0000
43.5375	90.0000
43.5468	78.0000
43.5560	110.0000
43.5652	88.0000
43.5744	101.0000
43.5836	92.0000
43.5929	93.0000
43.6021	91.0000
43.6113	87.0000
43.6205	118.0000
43.6298	126.0000
43.6390	192.0000
43.6482	172.0000
43.6574	219.0000
43.6666	244.0000
43.6759	211.0000
43.6851	185.0000
43.6943	162.0000
43.7035	137.0000
43.7128	128.0000
43.7220	120.0000
43.7312	99.0000
43.7404	105.0000
43.7497	91.0000
43.7589	93.0000
43.7681	89.0000
43.7773	86.0000
43.7865	84.0000
43.7958	105.0000
43.8050	83.0000
43.8142	86.0000
43.8234	95.0000
43.8327	103.0000
43.8419	82.0000
43.8511	77.0000
43.8603	62.0000
43.8695	91.0000
43.8788	73.0000
43.8880	70.0000
43.8972	90.0000
43.9064	88.0000
43.9157	78.0000
43.9249	90.0000
43.9341	98.0000
43.9433	97.0000
43.9525	75.0000
43.9618	96.0000
43.9710	95.0000
43.9802	75.0000
43.9894	90.0000
43.9987	86.0000
44.0079	81.0000
44.0171	96.0000
44.0263	65.0000
44.0356	70.0000
44.0448	83.0000
44.0540	91.0000
44.0632	65.0000
44.0724	71.0000
44.0817	82.0000
44.0909	81.0000
44.1001	83.0000
44.1093	74.0000
44.1186	79.0000
44.1278	86.0000
44.1370	82.0000
44.1462	90.0000
44.1554	64.0000
44.1647	91.0000
44.1739	74.0000
44.1831	70.0000
44.1923	82.0000
44.2016	77.0000
44.2108	65.0000
44.2200	88.0000
44.2292	72.0000
44.2385	84.0000
44.2477	75.0000
44.2569	77.0000
44.2661	72.0000
44.2753	81.0000
44.2846	81.0000
44.2938	106.0000
44.3030	73.0000
44.3122	85.0000
44.3215	79.0000
44.3307	81.0000
44.3399	86.0000
44.3491	81.0000
44.3583	62.0000
44.3676	75.0000
44.3768	81.0000
44.3860	72.0000
44.3952	80.0000
44.4045	86.0000
44.4137	75.0000
44.4229	88.0000
44.4321	78.0000
44.4414	71.0000
44.4506	80.0000
44.4598	76.0000
44.4690	87.0000
44.4782	85.0000
44.4875	79.0000
44.4967	79.0000
44.5059	66.0000
44.5151	82.0000
44.5244	76.0000
44.5336	69.0000
44.5428	77.0000
44.5520	87.0000
44.5612	89.0000
44.5705	82.0000
44.5797	82.0000
44.5889	67.0000
44.5981	54.0000
44.6074	81.0000
44.6166	72.0000
44.6258	70.0000
44.6350	66.0000
44.6442	89.0000
44.6535	80.0000
44.6627	67.0000
44.6719	94.0000
44.6811	63.0000
44.6904	76.0000
44.6996	80.0000
44.7088	93.0000
44.7180	74.0000
44.7273	80.0000
44.7365	91.0000
44.7457	92.0000
44.7549	76.0000
44.7641	68.0000
44.7734	82.0000
44.7826	77.0000
44.7918	70.0000
44.8010	86.0000
44.8103	87.0000
44.8195	77.0000
44.8287	68.0000
44.8379	85.0000
44.8471	70.0000
44.8564	66.0000
44.8656	70.0000
44.8748	78.0000
44.8840	71.0000
44.8933	68.0000
44.9025	83.0000
44.9117	75.0000
44.9209	62.0000
44.9302	84.0000
44.9394	67.0000
44.9486	84.0000
44.9578	63.0000
44.9670	73.0000
44.9763	86.0000
44.9855	96.0000
44.9947	84.0000
45.0039	83.0000
45.0132	92.0000
45.0224	72.0000
45.0316	62.0000
45.0408	80.0000
45.0500	70.0000
45.0593	79.0000
45.0685	79.0000
45.0777	78.0000
45.0869	61.0000
45.0962	74.0000
45.1054	70.0000
45.1146	74.0000
45.1238	78.0000
45.1330	73.0000
45.1423	78.0000
45.1515	81.0000
45.1607	81.0000
45.1699	75.0000
45.1792	76.0000
45.1884	66.0000
45.1976	77.0000
45.2068	70.0000
45.2161	57.0000
45.2253	71.0000
45.2345	73.0000
45.2437	80.0000
45.2529	83.0000
45.2622	82.0000
45.2714	79.0000
45.2806	74.0000
45.2898	78.0000
45.2991	64.0000
45.3083	83.0000
45.3175	99.0000
45.3267	90.0000
45.3359	71.0000
45.3452	77.0000
45.3544	86.0000
45.3636	59.0000
45.3728	76.0000
45.3821	94.0000
45.3913	75.0000
45.4005	88.0000
45.4097	83.0000
45.4190	72.0000
45.4282	83.0000
45.4374	72.0000
45.4466	72.0000
45.4558	63.0000
45.4651	66.0000
45.4743	78.0000
45.4835	70.0000
45.4927	79.0000
45.5020	65.0000
45.5112	67.0000
45.5204	73.0000
45.5296	62.0000
45.5388	60.0000
45.5481	79.0000
45.5573	63.0000
45.5665	77.0000
45.5757	101.0000
45.5850	75.0000
45.5942	61.0000
45.6034	82.0000
45.6126	80.0000
45.6219	68.0000
45.6311	68.0000
45.6403	63.0000
45.6495	76.0000
45.6587	68.0000
45.6680	76.0000
45.6772	74.0000
45.6864	63.0000
45.6956	85.0000
45.7049	74.0000
45.7141	80.0000
45.7233	78.0000
45.7325	77.0000
45.7417	77.0000
45.7510	74.0000
45.7602	58.0000
45.7694	56.0000
45.7786	90.0000
45.7879	80.0000
45.7971	87.0000
45.8063	72.0000
45.8155	80.0000
45.8247	80.0000
45.8340	77.0000
45.8432	67.0000
45.8524	73.0000
45.8616	68.0000
45.8709	65.0000
45.8801	69.0000
45.8893	72.0000
45.8985	61.0000
45.9078	86.0000
45.9170	61.0000
45.9262	77.0000
45.9354	68.0000
45.9446	69.0000
45.9539	46.0000
45.9631	62.0000
45.9723	71.0000
45.9815	69.0000
45.9908	78.0000
46.0000	95.0000
46.0092	84.0000
46.0184	70.0000
46.0276	78.0000
46.0369	68.0000
46.0461	74.0000
46.0553	69.0000
46.0645	75.0000
46.0738	64.0000
46.0830	60.0000
46.0922	75.0000
46.1014	73.0000
46.1107	68.0000
46.1199	91.0000
46.1291	71.0000
46.1383	54.0000
46.1475	78.0000
46.1568	79.0000
46.1660	63.0000
46.1752	70.0000
46.1844	67.0000
46.1937	76.0000
46.2029	91.0000
46.2121	75.0000
46.2213	72.0000
46.2305	87.0000
46.2398	70.0000
46.2490	70.0000
46.2582	68.0000
46.2674	64.0000
46.2767	59.0000
46.2859	65.0000
46.2951	67.0000
46.3043	62.0000
46.3135	72.0000
46.3228	78.0000
46.3320	72.0000
46.3412	77.0000
46.3504	75.0000
46.3597	76.0000
46.3689	86.0000
46.3781	75.0000
46.3873	71.0000
46.3966	66.0000
46.4058	85.0000
46.4150	56.0000
46.4242	60.0000
46.4334	73.0000
46.4427	65.0000
46.4519	64.0000
46.4611	72.0000
46.4703	72.0000
46.4796	72.0000
46.4888	63.0000
46.4980	58.0000
46.5072	76.0000
46.5164	71.0000
46.5257	67.0000
46.5349	75.0000
46.5441	71.0000
46.5533	82.0000
46.5626	73.0000
46.5718	73.0000
46.5810	75.0000
46.5902	71.0000
46.5995	66.0000
46.6087	52.0000
46.6179	75.0000
46.6271	60.0000
46.6363	82.0000
46.6456	68.0000
46.6548	82.0000
46.6640	61.0000
46.6732	65.0000
46.6825	62.0000
46.6917	62.0000
46.7009	77.0000
46.7101	79.0000
46.7193	62.0000
46.7286	74.0000
46.7378	70.0000
46.7470	59.0000
46.7562	75.0000
46.7655	60.0000
46.7747	65.0000
46.7839	83.0000
46.7931	83.0000
46.8024	78.0000
46.8116	65.0000
46.8208	80.0000
46.8300	75.0000
46.8392	75.0000
46.8485	70.0000
46.8577	66.0000
46.8669	61.0000
46.8761	66.0000
46.8854	71.0000
46.8946	80.0000
46.9038	71.0000
46.9130	60.0000
46.9222	95.0000
46.9315	63.0000
46.9407	68.0000
46.9499	63.0000
46.9591	72.0000
46.9684	61.0000
46.9776	81.0000
46.9868	70.0000
46.9960	82.0000
47.0052	68.0000
47.0145	69.0000
47.0237	60.0000
47.0329	66.0000
47.0421	64.0000
47.0514	63.0000
47.0606	67.0000
47.0698	51.0000
47.0790	72.0000
47.0883	53.0000
47.0975	71.0000
47.1067	74.0000
47.1159	73.0000
47.1251	79.0000
47.1344	69.0000
47.1436	54.0000
47.1528	67.0000
47.1620	72.0000
47.1713	70.0000
47.1805	60.0000
47.1897	73.0000
47.1989	63.0000
47.2081	64.0000
47.2174	71.0000
47.2266	69.0000
47.2358	71.0000
47.2450	50.0000
47.2543	55.0000
47.2635	63.0000
47.2727	64.0000
47.2819	64.0000
47.2912	56.0000
47.3004	78.0000
47.3096	67.0000
47.3188	79.0000
47.3280	70.0000
47.3373	69.0000
47.3465	79.0000
47.3557	74.0000
47.3649	86.0000
47.3742	58.0000
47.3834	79.0000
47.3926	71.0000
47.4018	69.0000
47.4110	71.0000
47.4203	74.0000
47.4295	70.0000
47.4387	66.0000
47.4479	73.0000
47.4572	83.0000
47.4664	72.0000
47.4756	59.0000
47.4848	59.0000
47.4940	55.0000
47.5033	67.0000
47.5125	67.0000
47.5217	80.0000
47.5309	57.0000
47.5402	66.0000
47.5494	67.0000
47.5586	58.0000
47.5678	66.0000
47.5771	61.0000
47.5863	74.0000
47.5955	59.0000
47.6047	63.0000
47.6139	61.0000
47.6232	70.0000
47.6324	68.0000
47.6416	73.0000
47.6508	50.0000
47.6601	80.0000
47.6693	78.0000
47.6785	68.0000
47.6877	55.0000
47.6969	77.0000
47.7062	71.0000
47.7154	68.0000
47.7246	56.0000
47.7338	57.0000
47.7431	70.0000
47.7523	74.0000
47.7615	57.0000
47.7707	59.0000
47.7800	63.0000
47.7892	68.0000
47.7984	59.0000
47.8076	83.0000
47.8168	54.0000
47.8261	64.0000
47.8353	55.0000
47.8445	68.0000
47.8537	74.0000
47.8630	66.0000
47.8722	63.0000
47.8814	55.0000
47.8906	61.0000
47.8998	66.0000
47.9091	56.0000
47.9183	60.0000
47.9275	70.0000
47.9367	71.0000
47.9460	56.0000
47.9552	65.0000
47.9644	57.0000
47.9736	60.0000
47.9829	84.0000
47.9921	69.0000
48.0013	75.0000
