11.0000	519.0000
11.0092	577.0000
11.0184	552.0000
11.0277	573.0000
11.0369	523.0000
11.0461	519.0000
11.0553	537.0000
11.0646	576.0000
11.0738	548.0000
11.0830	543.0000
11.0922	515.0000
11.1014	566.0000
11.1107	511.0000
11.1199	534.0000
11.1291	521.0000
11.1383	549.0000
11.1476	534.0000
11.1568	517.0000
11.1660	534.0000
11.1752	506.0000
11.1845	536.0000
11.1937	501.0000
11.2029	524.0000
11.2121	495.0000
11.2213	542.0000
11.2306	551.0000
11.2398	465.0000
11.2490	531.0000
11.2582	525.0000
11.2675	538.0000
11.2767	501.0000
11.2859	524.0000
11.2951	489.0000
11.3043	450.0000
11.3136	512.0000
11.3228	499.0000
11.3320	514.0000
11.3412	502.0000
11.3505	514.0000
11.3597	484.0000
11.3689	524.0000
11.3781	504.0000
11.3874	500.0000
11.3966	434.0000
11.4058	475.0000
11.4150	460.0000
11.4242	499.0000
11.4335	473.0000
11.4427	513.0000
11.4519	487.0000
11.4611	466.0000
11.4704	499.0000
11.4796	494.0000
11.4888	484.0000
11.4980	456.0000
11.5072	477.0000
11.5165	537.0000
11.5257	467.0000
11.5349	447.0000
11.5441	464.0000
11.5534	480.0000
11.5626	467.0000
11.5718	482.0000
11.5810	473.0000
11.5902	464.0000
11.5995	452.0000
11.6087	495.0000
11.6179	469.0000
11.6271	452.0000
11.6364	469.0000
11.6456	449.0000
11.6548	456.0000
11.6640	478.0000
11.6733	491.0000
11.6825	491.0000
11.6917	452.0000
11.7009	456.0000
11.7101	480.0000
11.7194	454.0000
11.7286	433.0000
11.7378	472.0000
11.7470	449.0000
11.7563	427.0000
11.7655	444.0000
11.7747	452.0000
11.7839	468.0000
11.7931	420.0000
11.8024	436.0000
11.8116	452.0000
11.8208	430.0000
11.8300	411.0000
11.8393	438.0000
11.8485	433.0000
11.8577	437.0000
11.8669	395.0000
11.8762	434.0000
11.8854	418.0000
11.8946	441.0000
11.9038	442.0000
11.9130	374.0000
11.9223	438.0000
11.9315	429.0000
11.9407	417.0000
11.9499	405.0000
11.9592	428.0000
11.9684	398.0000
11.9776	415.0000
11.9868	432.0000
11.9960	375.0000
12.0053	427.0000
12.0145	400.0000
12.0237	411.0000
12.0329	415.0000
12.0422	418.0000
12.0514	426.0000
12.0606	410.0000
12.0698	396.0000
12.0791	435.0000
12.0883	394.0000
12.0975	394.0000
12.1067	389.0000
12.1159	394.0000
12.1252	437.0000
12.1344	400.0000
12.1436	394.0000
12.1528	435.0000
12.1621	373.0000
12.1713	374.0000
12.1805	409.0000
12.1897	390.0000
12.1989	347.0000
12.2082	395.0000
12.2174	380.0000
12.2266	343.0000
12.2358	370.0000
12.2451	411.0000
12.2543	367.0000
12.2635	370.0000
12.2727	411.0000
12.2819	382.0000
12.2912	383.0000
12.3004	376.0000
12.3096	369.0000
12.3188	383.0000
12.3281	390.0000
12.3373	409.0000
12.3465	350.0000
12.3557	316.0000
12.3650	347.0000
12.3742	361.0000
12.3834	361.0000
12.3926	375.0000
12.4018	409.0000
12.4111	374.0000
12.4203	377.0000
12.4295	361.0000
12.4387	352.0000
12.4480	375.0000
12.4572	392.0000
12.4664	368.0000
12.4756	376.0000
12.4848	344.0000
12.4941	354.0000
12.5033	346.0000
12.5125	319.0000
12.5217	402.0000
12.5310	340.0000
12.5402	351.0000
12.5494	352.0000
12.5586	337.0000
12.5679	361.0000
12.5771	359.0000
12.5863	372.0000
12.5955	343.0000
12.6047	358.0000
12.6140	345.0000
12.6232	365.0000
12.6324	363.0000
12.6416	360.0000
12.6509	360.0000
12.6601	360.0000
12.6693	393.0000
12.6785	351.0000
12.6877	357.0000
12.6970	348.0000
12.7062	314.0000
12.7154	348.0000
12.7246	336.0000
12.7339	356.0000
12.7431	335.0000
12.7523	304.0000
12.7615	350.0000
12.7707	351.0000
12.7800	347.0000
12.7892	352.0000
12.7984	343.0000
12.8076	345.0000
12.8169	342.0000
12.8261	321.0000
12.8353	339.0000
12.8445	296.0000
12.8538	354.0000
12.8630	318.0000
12.8722	342.0000
12.8814	335.0000
12.8906	325.0000
12.8999	299.0000
12.9091	339.0000
12.9183	337.0000
12.9275	335.0000
12.9368	300.0000
12.9460	341.0000
12.9552	337.0000
12.9644	358.0000
12.9736	324.0000
12.9829	310.0000
12.9921	351.0000
13.0013	296.0000
13.0105	332.0000
13.0198	290.0000
13.0290	306.0000
13.0382	297.0000
13.0474	310.0000
13.0567	319.0000
13.0659	311.0000
13.0751	292.0000
13.0843	323.0000
13.0935	301.0000
13.1028	330.0000
13.1120	322.0000
13.1212	289.0000
13.1304	319.0000
13.1397	331.0000
13.1489	325.0000
13.1581	291.0000
13.1673	342.0000
13.1765	328.0000
13.1858	313.0000
13.1950	311.0000
13.2042	283.0000
13.2134	292.0000
13.2227	320.0000
13.2319	311.0000
13.2411	324.0000
13.2503	267.0000
13.2596	317.0000
13.2688	310.0000
13.2780	315.0000
13.2872	287.0000
13.2964	305.0000
13.3057	336.0000
13.3149	309.0000
13.3241	335.0000
13.3333	294.0000
13.3426	306.0000
13.3518	320.0000
13.3610	320.0000
13.3702	282.0000
13.3794	247.0000
13.3887	295.0000
13.3979	257.0000
13.4071	299.0000
13.4163	313.0000
13.4256	322.0000
13.4348	309.0000
13.4440	291.0000
13.4532	291.0000
13.4624	296.0000
13.4717	276.0000
13.4809	287.0000
13.4901	292.0000
13.4993	304.0000
13.5086	297.0000
13.5178	294.0000
13.5270	275.0000
13.5362	290.0000
13.5455	304.0000
13.5547	277.0000
13.5639	280.0000
13.5731	277.0000
13.5823	268.0000
13.5916	309.0000
13.6008	284.0000
13.6100	271.0000
13.6192	283.0000
13.6285	266.0000
13.6377	296.0000
13.6469	266.0000
13.6561	280.0000
13.6653	306.0000
13.6746	300.0000
13.6838	281.0000
13.6930	267.0000
13.7022	262.0000
13.7115	307.0000
13.7207	273.0000
13.7299	271.0000
13.7391	280.0000
13.7484	258.0000
13.7576	276.0000
13.7668	279.0000
13.7760	281.0000
13.7852	229.0000
13.7945	262.0000
13.8037	263.0000
13.8129	252.0000
13.8221	241.0000
13.8314	304.0000
13.8406	259.0000
13.8498	245.0000
13.8590	270.0000
13.8682	264.0000
13.8775	237.0000
13.8867	268.0000
13.8959	272.0000
13.9051	256.0000
13.9144	285.0000
13.9236	264.0000
13.9328	261.0000
13.9420	242.0000
13.9512	239.0000
13.9605	261.0000
13.9697	275.0000
13.9789	295.0000
13.9881	254.0000
13.9974	266.0000
14.0066	259.0000
14.0158	254.0000
14.0250	252.0000
14.0343	249.0000
14.0435	264.0000
14.0527	267.0000
14.0619	269.0000
14.0711	249.0000
14.0804	234.0000
14.0896	268.0000
14.0988	251.0000
14.1080	271.0000
14.1173	232.0000
14.1265	248.0000
14.1357	251.0000
14.1449	262.0000
14.1541	251.0000
14.1634	272.0000
14.1726	233.0000
14.1818	252.0000
14.1910	256.0000
14.2003	261.0000
14.2095	258.0000
14.2187	264.0000
14.2279	286.0000
14.2372	242.0000
14.2464	243.0000
14.2556	241.0000
14.2648	258.0000
14.2740	256.0000
14.2833	244.0000
14.2925	241.0000
14.3017	283.0000
14.3109	262.0000
14.3202	257.0000
14.3294	269.0000
14.3386	259.0000
14.3478	247.0000
14.3570	256.0000
14.3663	283.0000
14.3755	224.0000
14.3847	258.0000
14.3939	260.0000
14.4032	236.0000
14.4124	233.0000
14.4216	237.0000
14.4308	266.0000
14.4401	262.0000
14.4493	256.0000
14.4585	287.0000
14.4677	253.0000
14.4769	236.0000
14.4862	225.0000
14.4954	232.0000
14.5046	261.0000
14.5138	244.0000
14.5231	256.0000
14.5323	258.0000
14.5415	251.0000
14.5507	239.0000
14.5599	198.0000
14.5692	238.0000
14.5784	221.0000
14.5876	252.0000
14.5968	264.0000
14.6061	248.0000
14.6153	249.0000
14.6245	243.0000
14.6337	215.0000
14.6429	232.0000
14.6522	252.0000
14.6614	204.0000
14.6706	240.0000
14.6798	240.0000
14.6891	225.0000
14.6983	235.0000
14.7075	231.0000
14.7167	212.0000
14.7260	250.0000
14.7352	254.0000
14.7444	234.0000
14.7536	237.0000
14.7628	229.0000
14.7721	254.0000
14.7813	218.0000
14.7905	246.0000
14.7997	255.0000
14.8090	223.0000
14.8182	252.0000
14.8274	240.0000
14.8366	219.0000
14.8458	217.0000
14.8551	234.0000
14.8643	213.0000
14.8735	255.0000
14.8827	231.0000
14.8920	241.0000
14.9012	223.0000
14.9104	213.0000
14.9196	244.0000
14.9289	234.0000
14.9381	217.0000
14.9473	226.0000
14.9565	249.0000
14.9657	244.0000
14.9750	228.0000
14.9842	219.0000
14.9934	256.0000
15.0026	237.0000
15.0119	246.0000
15.0211	218.0000
15.0303	223.0000
15.0395	229.0000
15.0487	231.0000
15.0580	231.0000
15.0672	210.0000
15.0764	213.0000
15.0856	215.0000
15.0949	231.0000
15.1041	189.0000
15.1133	235.0000
15.1225	216.0000
15.1317	199.0000
15.1410	202.0000
15.1502	226.0000
15.1594	216.0000
15.1686	230.0000
15.1779	224.0000
15.1871	230.0000
15.1963	233.0000
15.2055	216.0000
15.2148	236.0000
15.2240	236.0000
15.2332	213.0000
15.2424	239.0000
15.2516	188.0000
15.2609	223.0000
15.2701	211.0000
15.2793	236.0000
15.2885	211.0000
15.2978	227.0000
15.3070	229.0000
15.3162	219.0000
15.3254	228.0000
15.3346	229.0000
15.3439	242.0000
15.3531	224.0000
15.3623	238.0000
15.3715	222.0000
15.3808	212.0000
15.3900	211.0000
15.3992	234.0000
15.4084	249.0000
15.4177	222.0000
15.4269	234.0000
15.4361	198.0000
15.4453	197.0000
15.4545	242.0000
15.4638	204.0000
15.4730	220.0000
15.4822	210.0000
15.4914	235.0000
15.5007	219.0000
15.5099	237.0000
15.5191	208.0000
15.5283	189.0000
15.5375	213.0000
15.5468	227.0000
15.5560	212.0000
15.5652	203.0000
15.5744	213.0000
15.5837	214.0000
15.5929	233.0000
15.6021	193.0000
15.6113	199.0000
15.6206	243.0000
15.6298	216.0000
15.6390	214.0000
15.6482	218.0000
15.6574	204.0000
15.6667	193.0000
15.6759	196.0000
15.6851	217.0000
15.6943	177.0000
15.7036	221.0000
15.7128	197.0000
15.7220	213.0000
15.7312	210.0000
15.7404	200.0000
15.7497	220.0000
15.7589	196.0000
15.7681	212.0000
15.7773	196.0000
15.7866	205.0000
15.7958	222.0000
15.8050	166.0000
15.8142	218.0000
15.8234	203.0000
15.8327	206.0000
15.8419	229.0000
15.8511	234.0000
15.8603	222.0000
15.8696	219.0000
15.8788	178.0000
15.8880	217.0000
15.8972	220.0000
15.9065	190.0000
15.9157	225.0000
15.9249	214.0000
15.9341	209.0000
15.9433	219.0000
15.9526	182.0000
15.9618	236.0000
15.9710	209.0000
15.9802	199.0000
15.9895	206.0000
15.9987	188.0000
16.0079	216.0000
16.0171	184.0000
16.0263	187.0000
16.0356	223.0000
16.0448	196.0000
16.0540	191.0000
16.0632	209.0000
16.0725	213.0000
16.0817	221.0000
16.0909	193.0000
16.1001	218.0000
16.1094	206.0000
16.1186	203.0000
16.1278	213.0000
16.1370	200.0000
16.1462	203.0000
16.1555	192.0000
16.1647	202.0000
16.1739	212.0000
16.1831	190.0000
16.1924	203.0000
16.2016	201.0000
16.2108	203.0000
16.2200	228.0000
16.2292	204.0000
16.2385	209.0000
16.2477	188.0000
16.2569	201.0000
16.2661	204.0000
16.2754	168.0000
16.2846	206.0000
16.2938	186.0000
16.3030	184.0000
16.3122	190.0000
16.3215	182.0000
16.3307	226.0000
16.3399	172.0000
16.3491	198.0000
16.3584	215.0000
16.3676	190.0000
16.3768	174.0000
16.3860	204.0000
16.3953	195.0000
16.4045	210.0000
16.4137	195.0000
16.4229	221.0000
16.4321	199.0000
16.4414	202.0000
16.4506	184.0000
16.4598	199.0000
16.4690	199.0000
16.4783	184.0000
16.4875	184.0000
16.4967	192.0000
16.5059	190.0000
16.5151	198.0000
16.5244	220.0000
16.5336	178.0000
16.5428	186.0000
16.5520	189.0000
16.5613	177.0000
16.5705	199.0000
16.5797	202.0000
16.5889	188.0000
16.5982	213.0000
16.6074	204.0000
16.6166	187.0000
16.6258	172.0000
16.6350	183.0000
16.6443	188.0000
16.6535	174.0000
16.6627	196.0000
16.6719	185.0000
16.6812	187.0000
16.6904	179.0000
16.6996	200.0000
16.7088	198.0000
16.7180	189.0000
16.7273	212.0000
16.7365	187.0000
16.7457	164.0000
16.7549	199.0000
16.7642	189.0000
16.7734	176.0000
16.7826	208.0000
16.7918	191.0000
16.8011	185.0000
16.8103	196.0000
16.8195	166.0000
16.8287	207.0000
16.8379	194.0000
16.8472	192.0000
16.8564	210.0000
16.8656	169.0000
16.8748	176.0000
16.8841	177.0000
16.8933	172.0000
16.9025	188.0000
16.9117	194.0000
16.9209	202.0000
16.9302	192.0000
16.9394	196.0000
16.9486	187.0000
16.9578	209.0000
16.9671	179.0000
16.9763	180.0000
16.9855	165.0000
16.9947	178.0000
17.0039	211.0000
17.0132	173.0000
17.0224	190.0000
17.0316	194.0000
17.0408	183.0000
17.0501	166.0000
17.0593	189.0000
17.0685	182.0000
17.0777	187.0000
17.0870	184.0000
17.0962	222.0000
17.1054	188.0000
17.1146	193.0000
17.1238	187.0000
17.1331	164.0000
17.1423	171.0000
17.1515	166.0000
17.1607	182.0000
17.1700	148.0000
17.1792	190.0000
17.1884	170.0000
17.1976	173.0000
17.2068	174.0000
17.2161	172.0000
17.2253	211.0000
17.2345	184.0000
17.2437	208.0000
17.2530	177.0000
17.2622	163.0000
17.2714	173.0000
17.2806	169.0000
17.2899	159.0000
17.2991	179.0000
17.3083	152.0000
17.3175	161.0000
17.3267	162.0000
17.3360	182.0000
17.3452	162.0000
17.3544	153.0000
17.3636	178.0000
17.3729	180.0000
17.3821	155.0000
17.3913	179.0000
17.4005	161.0000
17.4097	160.0000
17.4190	173.0000
17.4282	163.0000
17.4374	184.0000
17.4466	182.0000
17.4559	155.0000
17.4651	156.0000
17.4743	169.0000
17.4835	173.0000
17.4927	156.0000
17.5020	168.0000
17.5112	156.0000
17.5204	177.0000
17.5296	168.0000
17.5389	191.0000
17.5481	169.0000
17.5573	146.0000
17.5665	154.0000
17.5758	201.0000
17.5850	135.0000
17.5942	172.0000
17.6034	138.0000
17.6126	169.0000
17.6219	155.0000
17.6311	180.0000
17.6403	162.0000
17.6495	171.0000
17.6588	157.0000
17.6680	172.0000
17.6772	152.0000
17.6864	145.0000
17.6956	155.0000
17.7049	159.0000
17.7141	148.0000
17.7233	157.0000
17.7325	171.0000
17.7418	195.0000
17.7510	161.0000
17.7602	159.0000
17.7694	179.0000
17.7787	157.0000
17.7879	171.0000
17.7971	166.0000
17.8063	156.0000
17.8155	157.0000
17.8248	171.0000
17.8340	143.0000
17.8432	170.0000
17.8524	180.0000
17.8617	151.0000
17.8709	183.0000
17.8801	159.0000
17.8893	167.0000
17.8985	161.0000
17.9078	168.0000
17.9170	181.0000
17.9262	136.0000
17.9354	152.0000
17.9447	161.0000
17.9539	151.0000
17.9631	168.0000
17.9723	156.0000
17.9816	149.0000
17.9908	153.0000
18.0000	168.0000
18.0092	156.0000
18.0184	157.0000
18.0277	173.0000
18.0369	156.0000
18.0461	150.0000
18.0553	143.0000
18.0646	162.0000
18.0738	153.0000
18.0830	146.0000
18.0922	150.0000
18.1014	142.0000
18.1107	126.0000
18.1199	164.0000
18.1291	157.0000
18.1383	141.0000
18.1476	154.0000
18.1568	163.0000
18.1660	169.0000
18.1752	158.0000
18.1844	151.0000
18.1937	145.0000
18.2029	143.0000
18.2121	175.0000
18.2213	144.0000
18.2306	140.0000
18.2398	157.0000
18.2490	160.0000
18.2582	169.0000
18.2675	148.0000
18.2767	150.0000
18.2859	168.0000
18.2951	168.0000
18.3043	170.0000
18.3136	145.0000
18.3228	156.0000
18.3320	156.0000
18.3412	170.0000
18.3505	155.0000
18.3597	160.0000
18.3689	141.0000
18.3781	165.0000
18.3873	185.0000
18.3966	161.0000
18.4058	149.0000
18.4150	150.0000
18.4242	150.0000
18.4335	159.0000
18.4427	153.0000
18.4519	138.0000
18.4611	168.0000
18.4704	131.0000
18.4796	127.0000
18.4888	146.0000
18.4980	156.0000
18.5072	171.0000
18.5165	153.0000
18.5257	153.0000
18.5349	139.0000
18.5441	173.0000
18.5534	156.0000
18.5626	133.0000
18.5718	150.0000
18.5810	148.0000
18.5902	177.0000
18.5995	155.0000
18.6087	158.0000
18.6179	157.0000
18.6271	141.0000
18.6364	155.0000
18.6456	167.0000
18.6548	150.0000
18.6640	158.0000
18.6732	157.0000
18.6825	146.0000
18.6917	148.0000
18.7009	177.0000
18.7101	138.0000
18.7194	157.0000
18.7286	168.0000
18.7378	167.0000
18.7470	148.0000
18.7563	176.0000
18.7655	131.0000
18.7747	163.0000
18.7839	160.0000
18.7931	146.0000
18.8024	170.0000
18.8116	150.0000
18.8208	136.0000
18.8300	158.0000
18.8393	140.0000
18.8485	172.0000
18.8577	151.0000
18.8669	146.0000
18.8761	172.0000
18.8854	148.0000
18.8946	163.0000
18.9038	162.0000
18.9130	152.0000
18.9223	156.0000
18.9315	164.0000
18.9407	158.0000
18.9499	142.0000
18.9592	171.0000
18.9684	145.0000
18.9776	157.0000
18.9868	152.0000
18.9960	145.0000
19.0053	157.0000
19.0145	145.0000
19.0237	163.0000
19.0329	159.0000
19.0422	140.0000
19.0514	158.0000
19.0606	165.0000
19.0698	150.0000
19.0790	152.0000
19.0883	140.0000
19.0975	156.0000
19.1067	160.0000
19.1159	151.0000
19.1252	157.0000
19.1344	174.0000
19.1436	173.0000
19.1528	161.0000
19.1621	137.0000
19.1713	141.0000
19.1805	152.0000
19.1897	150.0000
19.1989	156.0000
19.2082	177.0000
19.2174	142.0000
19.2266	160.0000
19.2358	147.0000
19.2451	157.0000
19.2543	182.0000
19.2635	157.0000
19.2727	155.0000
19.2819	142.0000
19.2912	176.0000
19.3004	168.0000
19.3096	153.0000
19.3188	158.0000
19.3281	153.0000
19.3373	126.0000
19.3465	150.0000
19.3557	145.0000
19.3649	164.0000
19.3742	169.0000
19.3834	169.0000
19.3926	152.0000
19.4018	163.0000
19.4111	158.0000
19.4203	161.0000
19.4295	142.0000
19.4387	138.0000
19.4480	155.0000
19.4572	164.0000
19.4664	158.0000
19.4756	179.0000
19.4848	169.0000
19.4941	172.0000
19.5033	158.0000
19.5125	166.0000
19.5217	172.0000
19.5310	166.0000
19.5402	140.0000
19.5494	157.0000
19.5586	172.0000
19.5678	151.0000
19.5771	155.0000
19.5863	155.0000
19.5955	153.0000
19.6047	172.0000
19.6140	168.0000
19.6232	168.0000
19.6324	143.0000
19.6416	146.0000
19.6509	149.0000
19.6601	150.0000
19.6693	149.0000
19.6785	176.0000
19.6877	146.0000
19.6970	161.0000
19.7062	171.0000
19.7154	159.0000
19.7246	147.0000
19.7339	173.0000
19.7431	147.0000
19.7523	168.0000
19.7615	141.0000
19.7707	179.0000
19.7800	158.0000
19.7892	166.0000
19.7984	169.0000
19.8076	152.0000
19.8169	159.0000
19.8261	168.0000
19.8353	169.0000
19.8445	147.0000
19.8537	165.0000
19.8630	156.0000
19.8722	165.0000
19.8814	165.0000
19.8906	143.0000
19.8999	168.0000
19.9091	138.0000
19.9183	140.0000
19.9275	141.0000
19.9368	156.0000
19.9460	171.0000
19.9552	153.0000
19.9644	167.0000
19.9736	185.0000
19.9829	172.0000
19.9921	157.0000
20.0013	164.0000
20.0105	150.0000
20.0198	148.0000
20.0290	152.0000
20.0382	172.0000
20.0474	159.0000
20.0566	161.0000
20.0659	134.0000
20.0751	145.0000
20.0843	148.0000
20.0935	176.0000
20.1028	187.0000
20.1120	168.0000
20.1212	156.0000
20.1304	163.0000
20.1397	149.0000
20.1489	144.0000
20.1581	152.0000
20.1673	144.0000
20.1765	157.0000
20.1858	141.0000
20.1950	180.0000
20.2042	142.0000
20.2134	183.0000
20.2227	158.0000
20.2319	172.0000
20.2411	161.0000
20.2503	162.0000
20.2595	145.0000
20.2688	166.0000
20.2780	144.0000
20.2872	162.0000
20.2964	162.0000
20.3057	168.0000
20.3149	163.0000
20.3241	171.0000
20.3333	136.0000
20.3426	150.0000
20.3518	166.0000
20.3610	161.0000
20.3702	159.0000
20.3794	170.0000
20.3887	174.0000
20.3979	157.0000
20.4071	145.0000
20.4163	167.0000
20.4256	149.0000
20.4348	173.0000
20.4440	182.0000
20.4532	166.0000
20.4624	193.0000
20.4717	148.0000
20.4809	171.0000
20.4901	153.0000
20.4993	142.0000
20.5086	163.0000
20.5178	154.0000
20.5270	178.0000
20.5362	157.0000
20.5454	166.0000
20.5547	183.0000
20.5639	147.0000
20.5731	189.0000
20.5823	142.0000
20.5916	188.0000
20.6008	154.0000
20.6100	144.0000
20.6192	148.0000
20.6285	160.0000
20.6377	149.0000
20.6469	177.0000
20.6561	165.0000
20.6653	148.0000
20.6746	153.0000
20.6838	149.0000
20.6930	181.0000
20.7022	145.0000
20.7115	167.0000
20.7207	155.0000
20.7299	140.0000
20.7391	168.0000
20.7483	158.0000
20.7576	136.0000
20.7668	156.0000
20.7760	154.0000
20.7852	149.0000
20.7945	171.0000
20.8037	139.0000
20.8129	174.0000
20.8221	163.0000
20.8314	188.0000
20.8406	166.0000
20.8498	172.0000
20.8590	169.0000
20.8682	171.0000
20.8775	186.0000
20.8867	153.0000
20.8959	160.0000
20.9051	162.0000
20.9144	188.0000
20.9236	182.0000
20.9328	151.0000
20.9420	170.0000
20.9512	162.0000
20.9605	140.0000
20.9697	143.0000
20.9789	143.0000
20.9881	147.0000
20.9974	164.0000
21.0066	171.0000
21.0158	164.0000
21.0250	164.0000
21.0342	163.0000
21.0435	159.0000
21.0527	154.0000
21.0619	173.0000
21.0711	165.0000
21.0804	173.0000
21.0896	157.0000
21.0988	174.0000
21.1080	168.0000
21.1173	170.0000
21.1265	161.0000
21.1357	173.0000
21.1449	166.0000
21.1541	159.0000
21.1634	177.0000
21.1726	174.0000
21.1818	162.0000
21.1910	165.0000
21.2003	178.0000
21.2095	187.0000
21.2187	181.0000
21.2279	198.0000
21.2371	222.0000
21.2464	273.0000
21.2556	351.0000
21.2648	444.0000
21.2740	669.0000
21.2833	1028.0000
21.2925	1185.0000
21.3017	1133.0000
21.3109	770.0000
21.3202	524.0000
21.3294	334.0000
21.3386	263.0000
21.3478	218.0000
21.3570	209.0000
21.3663	236.0000
21.3755	251.0000
21.3847	289.0000
21.3939	400.0000
21.4032	517.0000
21.4124	680.0000
21.4216	740.0000
21.4308	598.0000
21.4400	419.0000
21.4493	292.0000
21.4585	199.0000
21.4677	221.0000
21.4769	183.0000
21.4862	181.0000
21.4954	156.0000
21.5046	184.0000
21.5138	186.0000
21.5231	174.0000
21.5323	157.0000
21.5415	147.0000
21.5507	162.0000
21.5599	169.0000
21.5692	168.0000
21.5784	156.0000
21.5876	184.0000
21.5968	164.0000
21.6061	146.0000
21.6153	156.0000
21.6245	165.0000
21.6337	173.0000
21.6429	176.0000
21.6522	162.0000
21.6614	152.0000
21.6706	161.0000
21.6798	163.0000
21.6891	142.0000
21.6983	178.0000
21.7075	151.0000
21.7167	126.0000
21.7259	160.0000
21.7352	174.0000
21.7444	178.0000
21.7536	154.0000
21.7628	171.0000
21.7721	173.0000
21.7813	172.0000
21.7905	166.0000
21.7997	149.0000
21.8090	165.0000
21.8182	168.0000
21.8274	144.0000
21.8366	175.0000
21.8458	143.0000
21.8551	139.0000
21.8643	169.0000
21.8735	172.0000
21.8827	157.0000
21.8920	158.0000
21.9012	167.0000
21.9104	162.0000
21.9196	169.0000
21.9288	149.0000
21.9381	166.0000
21.9473	153.0000
21.9565	148.0000
21.9657	171.0000
21.9750	176.0000
21.9842	157.0000
21.9934	172.0000
22.0026	158.0000
22.0119	160.0000
22.0211	138.0000
22.0303	134.0000
22.0395	154.0000
22.0487	145.0000
22.0580	174.0000
22.0672	156.0000
22.0764	174.0000
22.0856	148.0000
22.0949	164.0000
22.1041	131.0000
22.1133	161.0000
22.1225	180.0000
22.1317	162.0000
22.1410	160.0000
22.1502	168.0000
22.1594	178.0000
22.1686	155.0000
22.1779	180.0000
22.1871	173.0000
22.1963	170.0000
22.2055	155.0000
22.2147	138.0000
22.2240	156.0000
22.2332	146.0000
22.2424	134.0000
22.2516	152.0000
22.2609	160.0000
22.2701	150.0000
22.2793	163.0000
22.2885	143.0000
22.2978	157.0000
22.3070	130.0000
22.3162	158.0000
22.3254	140.0000
22.3346	165.0000
22.3439	154.0000
22.3531	155.0000
22.3623	152.0000
22.3715	151.0000
22.3808	158.0000
22.3900	168.0000
22.3992	142.0000
22.4084	150.0000
22.4176	172.0000
22.4269	165.0000
22.4361	141.0000
22.4453	156.0000
22.4545	168.0000
22.4638	181.0000
22.4730	149.0000
22.4822	151.0000
22.4914	158.0000
22.5007	145.0000
22.5099	144.0000
22.5191	145.0000
22.5283	137.0000
22.5375	163.0000
22.5468	137.0000
22.5560	155.0000
22.5652	137.0000
22.5744	160.0000
22.5837	149.0000
22.5929	163.0000
22.6021	154.0000
22.6113	138.0000
22.6205	138.0000
22.6298	147.0000
22.6390	169.0000
22.6482	172.0000
22.6574	161.0000
22.6667	150.0000
22.6759	161.0000
22.6851	147.0000
22.6943	129.0000
22.7036	145.0000
22.7128	180.0000
22.7220	161.0000
22.7312	153.0000
22.7404	168.0000
22.7497	147.0000
22.7589	134.0000
22.7681	153.0000
22.7773	170.0000
22.7866	153.0000
22.7958	158.0000
22.8050	170.0000
22.8142	133.0000
22.8234	140.0000
22.8327	124.0000
22.8419	146.0000
22.8511	144.0000
22.8603	156.0000
22.8696	144.0000
22.8788	163.0000
22.8880	167.0000
22.8972	182.0000
22.9064	166.0000
22.9157	135.0000
22.9249	146.0000
22.9341	152.0000
22.9433	148.0000
22.9526	138.0000
22.9618	141.0000
22.9710	129.0000
22.9802	164.0000
22.9895	167.0000
22.9987	161.0000
23.0079	157.0000
23.0171	175.0000
23.0263	124.0000
23.0356	154.0000
23.0448	131.0000
23.0540	149.0000
23.0632	150.0000
23.0725	145.0000
23.0817	142.0000
23.0909	157.0000
23.1001	168.0000
23.1093	146.0000
23.1186	150.0000
23.1278	154.0000
23.1370	149.0000
23.1462	144.0000
23.1555	138.0000
23.1647	158.0000
23.1739	168.0000
23.1831	141.0000
23.1924	149.0000
23.2016	156.0000
23.2108	150.0000
23.2200	153.0000
23.2292	139.0000
23.2385	154.0000
23.2477	155.0000
23.2569	150.0000
23.2661	168.0000
23.2754	145.0000
23.2846	128.0000
23.2938	151.0000
23.3030	152.0000
23.3122	156.0000
23.3215	157.0000
23.3307	165.0000
23.3399	169.0000
23.3491	148.0000
23.3584	146.0000
23.3676	138.0000
23.3768	161.0000
23.3860	154.0000
23.3952	130.0000
23.4045	159.0000
23.4137	155.0000
23.4229	135.0000
23.4321	141.0000
23.4414	167.0000
23.4506	153.0000
23.4598	146.0000
23.4690	162.0000
23.4783	164.0000
23.4875	157.0000
23.4967	138.0000
23.5059	170.0000
23.5151	160.0000
23.5244	173.0000
23.5336	138.0000
23.5428	150.0000
23.5520	138.0000
23.5613	159.0000
23.5705	154.0000
23.5797	144.0000
23.5889	166.0000
23.5981	153.0000
23.6074	179.0000
23.6166	145.0000
23.6258	142.0000
23.6350	159.0000
23.6443	151.0000
23.6535	129.0000
23.6627	145.0000
23.6719	142.0000
23.6812	148.0000
23.6904	167.0000
23.6996	157.0000
23.7088	142.0000
23.7180	155.0000
23.7273	142.0000
23.7365	140.0000
23.7457	143.0000
23.7549	146.0000
23.7642	154.0000
23.7734	136.0000
23.7826	132.0000
23.7918	136.0000
23.8010	152.0000
23.8103	139.0000
23.8195	131.0000
23.8287	160.0000
23.8379	159.0000
23.8472	143.0000
23.8564	144.0000
23.8656	146.0000
23.8748	156.0000
23.8841	132.0000
23.8933	157.0000
23.9025	151.0000
23.9117	168.0000
23.9209	162.0000
23.9302	152.0000
23.9394	138.0000
23.9486	175.0000
23.9578	155.0000
23.9671	159.0000
23.9763	148.0000
23.9855	140.0000
23.9947	141.0000
24.0039	151.0000
24.0132	126.0000
24.0224	152.0000
24.0316	147.0000
24.0408	156.0000
24.0501	154.0000
24.0593	156.0000
24.0685	161.0000
24.0777	134.0000
24.0869	164.0000
24.0962	169.0000
24.1054	155.0000
24.1146	153.0000
24.1238	165.0000
24.1331	157.0000
24.1423	148.0000
24.1515	173.0000
24.1607	139.0000
24.1700	147.0000
24.1792	145.0000
24.1884	178.0000
24.1976	142.0000
24.2068	154.0000
24.2161	151.0000
24.2253	148.0000
24.2345	151.0000
24.2437	129.0000
24.2530	164.0000
24.2622	182.0000
24.2714	157.0000
24.2806	145.0000
24.2898	159.0000
24.2991	158.0000
24.3083	171.0000
24.3175	179.0000
24.3267	146.0000
24.3360	168.0000
24.3452	139.0000
24.3544	169.0000
24.3636	171.0000
24.3729	146.0000
24.3821	156.0000
24.3913	141.0000
24.4005	179.0000
24.4097	152.0000
24.4190	133.0000
24.4282	151.0000
24.4374	156.0000
24.4466	179.0000
24.4559	169.0000
24.4651	171.0000
24.4743	167.0000
24.4835	139.0000
24.4927	180.0000
24.5020	151.0000
24.5112	155.0000
24.5204	147.0000
24.5296	145.0000
24.5389	156.0000
24.5481	153.0000
24.5573	130.0000
24.5665	147.0000
24.5757	159.0000
24.5850	126.0000
24.5942	175.0000
24.6034	184.0000
24.6126	157.0000
24.6219	159.0000
24.6311	155.0000
24.6403	171.0000
24.6495	153.0000
24.6588	163.0000
24.6680	139.0000
24.6772	156.0000
24.6864	170.0000
24.6956	172.0000
24.7049	142.0000
24.7141	133.0000
24.7233	167.0000
24.7325	180.0000
24.7418	165.0000
24.7510	172.0000
24.7602	152.0000
24.7694	155.0000
24.7786	178.0000
24.7879	172.0000
24.7971	171.0000
24.8063	164.0000
24.8155	144.0000
24.8248	159.0000
24.8340	155.0000
24.8432	152.0000
24.8524	169.0000
24.8617	169.0000
24.8709	170.0000
24.8801	166.0000
24.8893	174.0000
24.8985	150.0000
24.9078	150.0000
24.9170	177.0000
24.9262	173.0000
24.9354	159.0000
24.9447	185.0000
24.9539	193.0000
24.9631	191.0000
24.9723	186.0000
24.9815	211.0000
24.9908	273.0000
25.0000	399.0000
25.0092	584.0000
25.0184	834.0000
25.0277	971.0000
25.0369	818.0000
25.0461	616.0000
25.0553	451.0000
25.0646	285.0000
25.0738	253.0000
25.0830	221.0000
25.0922	181.0000
25.1014	200.0000
25.1107	183.0000
25.1199	185.0000
25.1291	189.0000
25.1383	231.0000
25.1476	301.0000
25.1568	342.0000
25.1660	540.0000
25.1752	546.0000
25.1844	521.0000
25.1937	434.0000
25.2029	312.0000
25.2121	231.0000
25.2213	220.0000
25.2306	187.0000
25.2398	189.0000
25.2490	174.0000
25.2582	168.0000
25.2674	168.0000
25.2767	153.0000
25.2859	192.0000
25.2951	157.0000
25.3043	163.0000
25.3136	166.0000
25.3228	176.0000
25.3320	158.0000
25.3412	163.0000
25.3505	143.0000
25.3597	145.0000
25.3689	142.0000
25.3781	155.0000
25.3873	162.0000
25.3966	113.0000
25.4058	152.0000
25.4150	151.0000
25.4242	136.0000
25.4335	141.0000
25.4427	188.0000
25.4519	154.0000
25.4611	144.0000
25.4703	158.0000
25.4796	157.0000
25.4888	161.0000
25.4980	133.0000
25.5072	167.0000
25.5165	165.0000
25.5257	154.0000
25.5349	169.0000
25.5441	168.0000
25.5534	164.0000
25.5626	163.0000
25.5718	155.0000
25.5810	176.0000
25.5902	173.0000
25.5995	187.0000
25.6087	168.0000
25.6179	179.0000
25.6271	184.0000
25.6364	152.0000
25.6456	151.0000
25.6548	154.0000
25.6640	163.0000
25.6732	154.0000
25.6825	175.0000
25.6917	168.0000
25.7009	167.0000
25.7101	156.0000
25.7194	146.0000
25.7286	141.0000
25.7378	165.0000
25.7470	170.0000
25.7562	142.0000
25.7655	174.0000
25.7747	155.0000
25.7839	168.0000
25.7931	153.0000
25.8024	172.0000
25.8116	151.0000
25.8208	163.0000
25.8300	162.0000
25.8393	185.0000
25.8485	173.0000
25.8577	163.0000
25.8669	173.0000
25.8761	149.0000
25.8854	156.0000
25.8946	162.0000
25.9038	149.0000
25.9130	155.0000
25.9223	147.0000
25.9315	149.0000
25.9407	181.0000
25.9499	179.0000
25.9591	188.0000
25.9684	173.0000
25.9776	166.0000
25.9868	154.0000
25.9960	180.0000
26.0053	194.0000
26.0145	160.0000
26.0237	162.0000
26.0329	152.0000
26.0422	161.0000
26.0514	152.0000
26.0606	160.0000
26.0698	158.0000
26.0790	166.0000
26.0883	157.0000
26.0975	184.0000
26.1067	164.0000
26.1159	161.0000
26.1252	168.0000
26.1344	152.0000
26.1436	149.0000
26.1528	158.0000
26.1620	161.0000
26.1713	150.0000
26.1805	176.0000
26.1897	152.0000
26.1989	151.0000
26.2082	142.0000
26.2174	163.0000
26.2266	164.0000
26.2358	164.0000
26.2451	162.0000
26.2543	166.0000
26.2635	177.0000
26.2727	171.0000
26.2819	156.0000
26.2912	168.0000
26.3004	162.0000
26.3096	160.0000
26.3188	161.0000
26.3281	157.0000
26.3373	185.0000
26.3465	177.0000
26.3557	166.0000
26.3649	179.0000
26.3742	150.0000
26.3834	171.0000
26.3926	166.0000
26.4018	171.0000
26.4111	152.0000
26.4203	157.0000
26.4295	165.0000
26.4387	163.0000
26.4479	162.0000
26.4572	182.0000
26.4664	172.0000
26.4756	165.0000
26.4848	168.0000
26.4941	174.0000
26.5033	159.0000
26.5125	151.0000
26.5217	161.0000
26.5310	158.0000
26.5402	162.0000
26.5494	149.0000
26.5586	177.0000
26.5678	162.0000
26.5771	156.0000
26.5863	183.0000
26.5955	148.0000
26.6047	172.0000
26.6140	195.0000
26.6232	168.0000
26.6324	160.0000
26.6416	157.0000
26.6508	161.0000
26.6601	186.0000
26.6693	161.0000
26.6785	166.0000
26.6877	156.0000
26.6970	150.0000
26.7062	181.0000
26.7154	173.0000
26.7246	179.0000
26.7339	161.0000
26.7431	178.0000
26.7523	188.0000
26.7615	184.0000
26.7707	153.0000
26.7800	168.0000
26.7892	149.0000
26.7984	160.0000
26.8076	167.0000
26.8169	197.0000
26.8261	164.0000
26.8353	181.0000
26.8445	163.0000
26.8537	148.0000
26.8630	178.0000
26.8722	174.0000
26.8814	153.0000
26.8906	190.0000
26.8999	171.0000
26.9091	144.0000
26.9183	176.0000
26.9275	173.0000
26.9367	144.0000
26.9460	156.0000
26.9552	150.0000
26.9644	181.0000
26.9736	156.0000
26.9829	171.0000
26.9921	161.0000
27.0013	180.0000
27.0105	173.0000
27.0198	167.0000
27.0290	119.0000
27.0382	184.0000
27.0474	166.0000
27.0566	149.0000
27.0659	153.0000
27.0751	170.0000
27.0843	158.0000
27.0935	158.0000
27.1028	176.0000
27.1120	165.0000
27.1212	161.0000
27.1304	155.0000
27.1396	161.0000
27.1489	180.0000
27.1581	185.0000
27.1673	193.0000
27.1765	178.0000
27.1858	191.0000
27.1950	167.0000
27.2042	151.0000
27.2134	175.0000
27.2227	165.0000
27.2319	177.0000
27.2411	181.0000
27.2503	188.0000
27.2595	168.0000
27.2688	161.0000
27.2780	183.0000
27.2872	178.0000
27.2964	179.0000
27.3057	160.0000
27.3149	174.0000
27.3241	166.0000
27.3333	176.0000
27.3425	175.0000
27.3518	170.0000
27.3610	137.0000
27.3702	150.0000
27.3794	162.0000
27.3887	173.0000
27.3979	177.0000
27.4071	178.0000
27.4163	157.0000
27.4256	181.0000
27.4348	162.0000
27.4440	172.0000
27.4532	180.0000
27.4624	168.0000
27.4717	193.0000
27.4809	144.0000
27.4901	186.0000
27.4993	185.0000
27.5086	183.0000
27.5178	163.0000
27.5270	165.0000
27.5362	184.0000
27.5454	166.0000
27.5547	189.0000
27.5639	152.0000
27.5731	159.0000
27.5823	199.0000
27.5916	199.0000
27.6008	158.0000
27.6100	169.0000
27.6192	163.0000
27.6284	174.0000
27.6377	165.0000
27.6469	174.0000
27.6561	162.0000
27.6653	170.0000
27.6746	179.0000
27.6838	155.0000
27.6930	171.0000
27.7022	178.0000
27.7115	159.0000
27.7207	161.0000
27.7299	155.0000
27.7391	162.0000
27.7483	179.0000
27.7576	202.0000
27.7668	156.0000
27.7760	184.0000
27.7852	163.0000
27.7945	177.0000
27.8037	174.0000
27.8129	157.0000
27.8221	175.0000
27.8313	171.0000
27.8406	168.0000
27.8498	153.0000
27.8590	187.0000
27.8682	165.0000
27.8775	176.0000
27.8867	159.0000
27.8959	172.0000
27.9051	181.0000
27.9144	157.0000
27.9236	182.0000
27.9328	166.0000
27.9420	168.0000
27.9512	164.0000
27.9605	191.0000
27.9697	176.0000
27.9789	178.0000
27.9881	165.0000
27.9974	171.0000
28.0066	179.0000
28.0158	190.0000
28.0250	152.0000
28.0342	185.0000
28.0435	177.0000
28.0527	167.0000
28.0619	175.0000
28.0711	188.0000
28.0804	166.0000
28.0896	163.0000
28.0988	190.0000
28.1080	159.0000
28.1172	175.0000
28.1265	180.0000
28.1357	160.0000
28.1449	163.0000
28.1541	163.0000
28.1634	146.0000
28.1726	175.0000
28.1818	195.0000
28.1910	171.0000
28.2003	183.0000
28.2095	197.0000
28.2187	190.0000
28.2279	166.0000
28.2371	197.0000
28.2464	168.0000
28.2556	166.0000
28.2648	169.0000
28.2740	163.0000
28.2833	175.0000
28.2925	165.0000
28.3017	184.0000
28.3109	193.0000
28.3201	188.0000
28.3294	153.0000
28.3386	171.0000
28.3478	192.0000
28.3570	172.0000
28.3663	191.0000
28.3755	181.0000
28.3847	180.0000
28.3939	166.0000
28.4032	191.0000
28.4124	174.0000
28.4216	194.0000
28.4308	187.0000
28.4400	186.0000
28.4493	170.0000
28.4585	180.0000
28.4677	160.0000
28.4769	170.0000
28.4862	179.0000
28.4954	177.0000
28.5046	169.0000
28.5138	168.0000
28.5230	170.0000
28.5323	169.0000
28.5415	170.0000
28.5507	161.0000
28.5599	170.0000
28.5692	161.0000
28.5784	180.0000
28.5876	166.0000
28.5968	176.0000
28.6061	156.0000
28.6153	174.0000
28.6245	185.0000
28.6337	163.0000
28.6429	188.0000
28.6522	178.0000
28.6614	163.0000
28.6706	167.0000
28.6798	191.0000
28.6891	177.0000
28.6983	167.0000
28.7075	170.0000
28.7167	164.0000
28.7259	182.0000
28.7352	162.0000
28.7444	192.0000
28.7536	188.0000
28.7628	198.0000
28.7721	192.0000
28.7813	189.0000
28.7905	159.0000
28.7997	188.0000
28.8089	172.0000
28.8182	163.0000
28.8274	190.0000
28.8366	180.0000
28.8458	166.0000
28.8551	170.0000
28.8643	184.0000
28.8735	168.0000
28.8827	181.0000
28.8920	186.0000
28.9012	177.0000
28.9104	187.0000
28.9196	178.0000
28.9288	201.0000
28.9381	186.0000
28.9473	192.0000
28.9565	171.0000
28.9657	185.0000
28.9750	179.0000
28.9842	170.0000
28.9934	210.0000
29.0026	186.0000
29.0118	189.0000
29.0211	169.0000
29.0303	171.0000
29.0395	171.0000
29.0487	173.0000
29.0580	167.0000
29.0672	176.0000
29.0764	172.0000
29.0856	177.0000
29.0949	201.0000
29.1041	174.0000
29.1133	169.0000
29.1225	154.0000
29.1317	173.0000
29.1410	187.0000
29.1502	181.0000
29.1594	164.0000
29.1686	181.0000
29.1779	177.0000
29.1871	168.0000
29.1963	189.0000
29.2055	166.0000
29.2147	194.0000
29.2240	183.0000
29.2332	173.0000
29.2424	175.0000
29.2516	171.0000
29.2609	193.0000
29.2701	188.0000
29.2793	163.0000
29.2885	198.0000
29.2977	176.0000
29.3070	167.0000
29.3162	189.0000
29.3254	190.0000
29.3346	144.0000
29.3439	177.0000
29.3531	157.0000
29.3623	161.0000
29.3715	182.0000
29.3808	186.0000
29.3900	178.0000
29.3992	158.0000
29.4084	175.0000
29.4176	172.0000
29.4269	185.0000
29.4361	184.0000
29.4453	162.0000
29.4545	180.0000
29.4638	177.0000
29.4730	166.0000
29.4822	164.0000
29.4914	170.0000
29.5006	167.0000
29.5099	174.0000
29.5191	188.0000
29.5283	175.0000
29.5375	206.0000
29.5468	170.0000
29.5560	186.0000
29.5652	195.0000
29.5744	174.0000
29.5837	179.0000
29.5929	167.0000
29.6021	185.0000
29.6113	188.0000
29.6205	177.0000
29.6298	172.0000
29.6390	165.0000
29.6482	186.0000
29.6574	154.0000
29.6667	194.0000
29.6759	174.0000
29.6851	173.0000
29.6943	174.0000
29.7035	185.0000
29.7128	180.0000
29.7220	171.0000
29.7312	164.0000
29.7404	170.0000
29.7497	185.0000
29.7589	192.0000
29.7681	206.0000
29.7773	166.0000
29.7866	187.0000
29.7958	181.0000
29.8050	181.0000
29.8142	177.0000
29.8234	183.0000
29.8327	180.0000
29.8419	163.0000
29.8511	161.0000
29.8603	175.0000
29.8696	175.0000
29.8788	177.0000
29.8880	179.0000
29.8972	148.0000
29.9064	183.0000
29.9157	191.0000
29.9249	170.0000
29.9341	179.0000
29.9433	196.0000
29.9526	182.0000
29.9618	189.0000
29.9710	163.0000
29.9802	183.0000
29.9894	174.0000
29.9987	188.0000
30.0079	157.0000
30.0171	179.0000
30.0263	180.0000
30.0356	162.0000
30.0448	194.0000
30.0540	175.0000
30.0632	200.0000
30.0725	166.0000
30.0817	166.0000
30.0909	175.0000
30.1001	166.0000
30.1093	169.0000
30.1186	192.0000
30.1278	177.0000
30.1370	170.0000
30.1462	176.0000
30.1555	183.0000
30.1647	179.0000
30.1739	166.0000
30.1831	176.0000
30.1923	169.0000
30.2016	166.0000
30.2108	167.0000
30.2200	185.0000
30.2292	176.0000
30.2385	159.0000
30.2477	178.0000
30.2569	183.0000
30.2661	184.0000
30.2754	172.0000
30.2846	183.0000
30.2938	185.0000
30.3030	160.0000
30.3122	172.0000
30.3215	152.0000
30.3307	151.0000
30.3399	193.0000
30.3491	150.0000
30.3584	168.0000
30.3676	181.0000
30.3768	173.0000
30.3860	176.0000
30.3952	180.0000
30.4045	190.0000
30.4137	192.0000
30.4229	158.0000
30.4321	167.0000
30.4414	195.0000
30.4506	151.0000
30.4598	168.0000
30.4690	166.0000
30.4782	167.0000
30.4875	178.0000
30.4967	178.0000
30.5059	159.0000
30.5151	200.0000
30.5244	168.0000
30.5336	163.0000
30.5428	158.0000
30.5520	167.0000
30.5613	181.0000
30.5705	194.0000
30.5797	166.0000
30.5889	171.0000
30.5981	181.0000
30.6074	180.0000
30.6166	175.0000
30.6258	176.0000
30.6350	151.0000
30.6443	152.0000
30.6535	198.0000
30.6627	161.0000
30.6719	188.0000
30.6811	191.0000
30.6904	161.0000
30.6996	168.0000
30.7088	183.0000
30.7180	168.0000
30.7273	161.0000
30.7365	173.0000
30.7457	180.0000
30.7549	181.0000
30.7642	168.0000
30.7734	146.0000
30.7826	165.0000
30.7918	172.0000
30.8010	160.0000
30.8103	171.0000
30.8195	158.0000
30.8287	176.0000
30.8379	167.0000
30.8472	151.0000
30.8564	139.0000
30.8656	162.0000
30.8748	184.0000
30.8840	178.0000
30.8933	189.0000
30.9025	187.0000
30.9117	180.0000
30.9209	183.0000
30.9302	199.0000
30.9394	185.0000
30.9486	161.0000
30.9578	182.0000
30.9671	177.0000
30.9763	175.0000
30.9855	161.0000
30.9947	173.0000
31.0039	176.0000
31.0132	149.0000
31.0224	152.0000
31.0316	160.0000
31.0408	179.0000
31.0501	173.0000
31.0593	178.0000
31.0685	184.0000
31.0777	147.0000
31.0869	165.0000
31.0962	181.0000
31.1054	174.0000
31.1146	167.0000
31.1238	170.0000
31.1331	168.0000
31.1423	199.0000
31.1515	180.0000
31.1607	180.0000
31.1699	183.0000
31.1792	160.0000
31.1884	158.0000
31.1976	168.0000
31.2068	208.0000
31.2161	189.0000
31.2253	190.0000
31.2345	158.0000
31.2437	179.0000
31.2530	158.0000
31.2622	172.0000
31.2714	163.0000
31.2806	169.0000
31.2898	168.0000
31.2991	175.0000
31.3083	189.0000
31.3175	175.0000
31.3267	185.0000
31.3360	173.0000
31.3452	178.0000
31.3544	163.0000
31.3636	179.0000
31.3728	176.0000
31.3821	183.0000
31.3913	163.0000
31.4005	177.0000
31.4097	201.0000
31.4190	165.0000
31.4282	175.0000
31.4374	165.0000
31.4466	189.0000
31.4559	183.0000
31.4651	172.0000
31.4743	160.0000
31.4835	171.0000
31.4927	169.0000
31.5020	161.0000
31.5112	172.0000
31.5204	178.0000
31.5296	180.0000
31.5389	194.0000
31.5481	161.0000
31.5573	169.0000
31.5665	179.0000
31.5757	192.0000
31.5850	179.0000
31.5942	181.0000
31.6034	188.0000
31.6126	152.0000
31.6219	188.0000
31.6311	170.0000
31.6403	169.0000
31.6495	154.0000
31.6587	173.0000
31.6680	165.0000
31.6772	164.0000
31.6864	168.0000
31.6956	171.0000
31.7049	180.0000
31.7141	190.0000
31.7233	200.0000
31.7325	174.0000
31.7418	181.0000
31.7510	179.0000
31.7602	190.0000
31.7694	187.0000
31.7786	166.0000
31.7879	190.0000
31.7971	163.0000
31.8063	195.0000
31.8155	159.0000
31.8248	172.0000
31.8340	190.0000
31.8432	198.0000
31.8524	158.0000
31.8616	179.0000
31.8709	168.0000
31.8801	179.0000
31.8893	174.0000
31.8985	180.0000
31.9078	155.0000
31.9170	192.0000
31.9262	196.0000
31.9354	166.0000
31.9447	178.0000
31.9539	185.0000
31.9631	186.0000
31.9723	177.0000
31.9815	164.0000
31.9908	166.0000
32.0000	152.0000
32.0092	178.0000
32.0184	160.0000
32.0277	178.0000
32.0369	175.0000
32.0461	168.0000
32.0553	199.0000
32.0645	171.0000
32.0738	157.0000
32.0830	181.0000
32.0922	181.0000
32.1014	172.0000
32.1107	181.0000
32.1199	150.0000
32.1291	169.0000
32.1383	190.0000
32.1476	175.0000
32.1568	180.0000
32.1660	163.0000
32.1752	198.0000
32.1844	169.0000
32.1937	145.0000
32.2029	183.0000
32.2121	179.0000
32.2213	161.0000
32.2306	176.0000
32.2398	153.0000
32.2490	194.0000
32.2582	172.0000
32.2674	183.0000
32.2767	175.0000
32.2859	159.0000
32.2951	159.0000
32.3043	185.0000
32.3136	170.0000
32.3228	154.0000
32.3320	163.0000
32.3412	178.0000
32.3504	196.0000
32.3597	179.0000
32.3689	185.0000
32.3781	169.0000
32.3873	181.0000
32.3966	167.0000
32.4058	174.0000
32.4150	165.0000
32.4242	171.0000
32.4335	169.0000
32.4427	205.0000
32.4519	160.0000
32.4611	170.0000
32.4703	178.0000
32.4796	171.0000
32.4888	160.0000
32.4980	184.0000
32.5072	157.0000
32.5165	178.0000
32.5257	162.0000
32.5349	175.0000
32.5441	178.0000
32.5533	178.0000
32.5626	182.0000
32.5718	171.0000
32.5810	178.0000
32.5902	181.0000
32.5995	170.0000
32.6087	169.0000
32.6179	185.0000
32.6271	165.0000
32.6364	163.0000
32.6456	191.0000
32.6548	159.0000
32.6640	162.0000
32.6732	163.0000
32.6825	178.0000
32.6917	177.0000
32.7009	162.0000
32.7101	189.0000
32.7194	185.0000
32.7286	203.0000
32.7378	169.0000
32.7470	203.0000
32.7562	175.0000
32.7655	200.0000
32.7747	177.0000
32.7839	180.0000
32.7931	164.0000
32.8024	173.0000
32.8116	153.0000
32.8208	178.0000
32.8300	181.0000
32.8392	186.0000
32.8485	205.0000
32.8577	161.0000
32.8669	170.0000
32.8761	175.0000
32.8854	183.0000
32.8946	169.0000
32.9038	190.0000
32.9130	184.0000
32.9223	179.0000
32.9315	180.0000
32.9407	186.0000
32.9499	166.0000
32.9591	181.0000
32.9684	182.0000
32.9776	161.0000
32.9868	159.0000
32.9960	172.0000
33.0053	177.0000
33.0145	180.0000
33.0237	165.0000
33.0329	169.0000
33.0421	163.0000
33.0514	164.0000
33.0606	187.0000
33.0698	175.0000
33.0790	167.0000
33.0883	184.0000
33.0975	171.0000
33.1067	177.0000
33.1159	183.0000
33.1252	144.0000
33.1344	157.0000
33.1436	195.0000
33.1528	158.0000
33.1620	199.0000
33.1713	175.0000
33.1805	156.0000
33.1897	171.0000
33.1989	177.0000
33.2082	194.0000
33.2174	172.0000
33.2266	199.0000
33.2358	179.0000
33.2450	176.0000
33.2543	182.0000
33.2635	173.0000
33.2727	200.0000
33.2819	180.0000
33.2912	158.0000
33.3004	166.0000
33.3096	191.0000
33.3188	177.0000
33.3281	168.0000
33.3373	193.0000
33.3465	178.0000
33.3557	180.0000
33.3649	164.0000
33.3742	167.0000
33.3834	169.0000
33.3926	188.0000
33.4018	174.0000
33.4111	176.0000
33.4203	184.0000
33.4295	175.0000
33.4387	150.0000
33.4479	194.0000
33.4572	182.0000
33.4664	170.0000
33.4756	165.0000
33.4848	174.0000
33.4941	156.0000
33.5033	178.0000
33.5125	183.0000
33.5217	186.0000
33.5309	162.0000
33.5402	184.0000
33.5494	168.0000
33.5586	156.0000
33.5678	178.0000
33.5771	168.0000
33.5863	182.0000
33.5955	174.0000
33.6047	160.0000
33.6140	186.0000
33.6232	184.0000
33.6324	163.0000
33.6416	170.0000
33.6508	172.0000
33.6601	186.0000
33.6693	169.0000
33.6785	175.0000
33.6877	159.0000
33.6970	190.0000
33.7062	168.0000
33.7154	183.0000
33.7246	166.0000
33.7338	181.0000
33.7431	158.0000
33.7523	152.0000
33.7615	177.0000
33.7707	183.0000
33.7800	182.0000
33.7892	152.0000
33.7984	162.0000
33.8076	172.0000
33.8169	154.0000
33.8261	154.0000
33.8353	206.0000
33.8445	173.0000
33.8537	166.0000
33.8630	176.0000
33.8722	174.0000
33.8814	152.0000
33.8906	160.0000
33.8999	174.0000
33.9091	171.0000
33.9183	175.0000
33.9275	183.0000
33.9367	166.0000
33.9460	172.0000
33.9552	178.0000
33.9644	197.0000
33.9736	173.0000
33.9829	178.0000
33.9921	166.0000
34.0013	173.0000
34.0105	163.0000
34.0197	152.0000
34.0290	158.0000
34.0382	197.0000
34.0474	164.0000
34.0566	157.0000
34.0659	190.0000
34.0751	170.0000
34.0843	174.0000
34.0935	160.0000
34.1028	173.0000
34.1120	183.0000
34.1212	166.0000
34.1304	174.0000
34.1396	172.0000
34.1489	192.0000
34.1581	158.0000
34.1673	170.0000
34.1765	166.0000
34.1858	165.0000
34.1950	160.0000
34.2042	159.0000
34.2134	180.0000
34.2226	161.0000
34.2319	165.0000
34.2411	160.0000
34.2503	157.0000
34.2595	189.0000
34.2688	160.0000
34.2780	141.0000
34.2872	150.0000
34.2964	136.0000
34.3057	156.0000
34.3149	187.0000
34.3241	154.0000
34.3333	192.0000
34.3425	163.0000
34.3518	171.0000
34.3610	179.0000
34.3702	179.0000
34.3794	181.0000
34.3887	179.0000
34.3979	158.0000
34.4071	152.0000
34.4163	194.0000
34.4255	164.0000
34.4348	158.0000
34.4440	164.0000
34.4532	127.0000
34.4624	150.0000
34.4717	165.0000
34.4809	162.0000
34.4901	155.0000
34.4993	168.0000
34.5086	178.0000
34.5178	176.0000
34.5270	161.0000
34.5362	157.0000
34.5454	143.0000
34.5547	193.0000
34.5639	159.0000
34.5731	173.0000
34.5823	139.0000
34.5916	160.0000
34.6008	181.0000
34.6100	170.0000
34.6192	170.0000
34.6284	158.0000
34.6377	153.0000
34.6469	164.0000
34.6561	159.0000
34.6653	153.0000
34.6746	157.0000
34.6838	151.0000
34.6930	153.0000
34.7022	160.0000
34.7114	176.0000
34.7207	149.0000
34.7299	162.0000
34.7391	166.0000
34.7483	187.0000
34.7576	162.0000
34.7668	167.0000
34.7760	147.0000
34.7852	150.0000
34.7945	180.0000
34.8037	158.0000
34.8129	153.0000
34.8221	153.0000
34.8313	168.0000
34.8406	175.0000
34.8498	167.0000
34.8590	157.0000
34.8682	145.0000
34.8775	154.0000
34.8867	156.0000
34.8959	154.0000
34.9051	158.0000
34.9143	161.0000
34.9236	145.0000
34.9328	135.0000
34.9420	161.0000
34.9512	143.0000
34.9605	137.0000
34.9697	164.0000
34.9789	144.0000
34.9881	174.0000
34.9974	165.0000
35.0066	164.0000
35.0158	141.0000
35.0250	136.0000
35.0342	155.0000
35.0435	177.0000
35.0527	161.0000
35.0619	159.0000
35.0711	145.0000
35.0804	134.0000
35.0896	147.0000
35.0988	148.0000
35.1080	160.0000
35.1172	159.0000
35.1265	150.0000
35.1357	159.0000
35.1449	173.0000
35.1541	138.0000
35.1634	177.0000
35.1726	150.0000
35.1818	143.0000
35.1910	162.0000
35.2002	150.0000
35.2095	138.0000
35.2187	140.0000
35.2279	160.0000
35.2371	155.0000
35.2464	144.0000
35.2556	138.0000
35.2648	149.0000
35.2740	145.0000
35.2833	153.0000
35.2925	184.0000
35.3017	140.0000
35.3109	147.0000
35.3201	149.0000
35.3294	153.0000
35.3386	133.0000
35.3478	134.0000
35.3570	158.0000
35.3663	154.0000
35.3755	158.0000
35.3847	147.0000
35.3939	152.0000
35.4031	168.0000
35.4124	156.0000
35.4216	143.0000
35.4308	145.0000
35.4400	164.0000
35.4493	161.0000
35.4585	123.0000
35.4677	137.0000
35.4769	154.0000
35.4862	140.0000
35.4954	149.0000
35.5046	132.0000
35.5138	138.0000
35.5230	162.0000
35.5323	146.0000
35.5415	132.0000
35.5507	127.0000
35.5599	123.0000
35.5692	136.0000
35.5784	150.0000
35.5876	130.0000
35.5968	145.0000
35.6060	115.0000
35.6153	154.0000
35.6245	125.0000
35.6337	153.0000
35.6429	126.0000
35.6522	142.0000
35.6614	127.0000
35.6706	131.0000
35.6798	136.0000
35.6891	141.0000
35.6983	127.0000
35.7075	118.0000
35.7167	124.0000
35.7259	141.0000
35.7352	145.0000
35.7444	127.0000
35.7536	129.0000
35.7628	121.0000
35.7721	147.0000
35.7813	133.0000
35.7905	119.0000
35.7997	137.0000
35.8089	144.0000
35.8182	154.0000
35.8274	136.0000
35.8366	130.0000
35.8458	133.0000
35.8551	142.0000
35.8643	129.0000
35.8735	134.0000
35.8827	127.0000
35.8919	150.0000
35.9012	145.0000
35.9104	136.0000
35.9196	113.0000
35.9288	104.0000
35.9381	129.0000
35.9473	155.0000
35.9565	98.0000
35.9657	140.0000
35.9750	141.0000
35.9842	122.0000
35.9934	137.0000
36.0026	143.0000
36.0118	135.0000
36.0211	131.0000
36.0303	146.0000
36.0395	119.0000
36.0487	125.0000
36.0580	119.0000
36.0672	116.0000
36.0764	141.0000
36.0856	126.0000
36.0948	129.0000
36.1041	127.0000
36.1133	122.0000
36.1225	132.0000
36.1317	125.0000
36.1410	135.0000
36.1502	120.0000
36.1594	127.0000
36.1686	116.0000
36.1779	136.0000
36.1871	124.0000
36.1963	131.0000
36.2055	119.0000
36.2147	128.0000
36.2240	93.0000
36.2332	113.0000
36.2424	117.0000
36.2516	110.0000
36.2609	134.0000
36.2701	104.0000
36.2793	122.0000
36.2885	111.0000
36.2977	122.0000
36.3070	110.0000
36.3162	122.0000
36.3254	137.0000
36.3346	152.0000
36.3439	119.0000
36.3531	121.0000
36.3623	115.0000
36.3715	117.0000
36.3807	111.0000
36.3900	133.0000
36.3992	130.0000
36.4084	118.0000
36.4176	123.0000
36.4269	110.0000
36.4361	118.0000
36.4453	122.0000
36.4545	130.0000
36.4638	134.0000
36.4730	130.0000
36.4822	108.0000
36.4914	117.0000
36.5006	115.0000
36.5099	98.0000
36.5191	112.0000
36.5283	105.0000
36.5375	114.0000
36.5468	108.0000
36.5560	106.0000
36.5652	120.0000
36.5744	127.0000
36.5836	111.0000
36.5929	122.0000
36.6021	119.0000
36.6113	120.0000
36.6205	127.0000
36.6298	106.0000
36.6390	123.0000
36.6482	98.0000
36.6574	101.0000
36.6667	116.0000
36.6759	108.0000
36.6851	122.0000
36.6943	114.0000
36.7035	127.0000
36.7128	128.0000
36.7220	119.0000
36.7312	116.0000
36.7404	116.0000
36.7497	121.0000
36.7589	113.0000
36.7681	126.0000
36.7773	110.0000
36.7865	109.0000
36.7958	120.0000
36.8050	102.0000
36.8142	117.0000
36.8234	104.0000
36.8327	93.0000
36.8419	99.0000
36.8511	108.0000
36.8603	141.0000
36.8696	97.0000
36.8788	110.0000
36.8880	84.0000
36.8972	120.0000
36.9064	100.0000
36.9157	115.0000
36.9249	89.0000
36.9341	118.0000
36.9433	122.0000
36.9526	122.0000
36.9618	118.0000
36.9710	96.0000
36.9802	101.0000
36.9894	86.0000
36.9987	120.0000
37.0079	106.0000
37.0171	120.0000
37.0263	107.0000
37.0356	116.0000
37.0448	107.0000
37.0540	112.0000
37.0632	109.0000
37.0724	113.0000
37.0817	90.0000
37.0909	84.0000
37.1001	102.0000
37.1093	119.0000
37.1186	104.0000
37.1278	98.0000
37.1370	106.0000
37.1462	110.0000
37.1555	97.0000
37.1647	115.0000
37.1739	101.0000
37.1831	127.0000
37.1923	135.0000
37.2016	86.0000
37.2108	117.0000
37.2200	108.0000
37.2292	106.0000
37.2385	101.0000
37.2477	93.0000
37.2569	101.0000
37.2661	110.0000
37.2753	116.0000
37.2846	89.0000
37.2938	122.0000
37.3030	105.0000
37.3122	97.0000
37.3215	136.0000
37.3307	123.0000
37.3399	113.0000
37.3491	87.0000
37.3584	117.0000
37.3676	115.0000
37.3768	86.0000
37.3860	116.0000
37.3952	117.0000
37.4045	104.0000
37.4137	114.0000
37.4229	81.0000
37.4321	92.0000
37.4414	101.0000
37.4506	90.0000
37.4598	104.0000
37.4690	113.0000
37.4782	94.0000
37.4875	87.0000
37.4967	103.0000
37.5059	98.0000
37.5151	93.0000
37.5244	100.0000
37.5336	100.0000
37.5428	108.0000
37.5520	105.0000
37.5612	96.0000
37.5705	85.0000
37.5797	106.0000
37.5889	101.0000
37.5981	123.0000
37.6074	111.0000
37.6166	102.0000
37.6258	88.0000
37.6350	127.0000
37.6443	109.0000
37.6535	87.0000
37.6627	99.0000
37.6719	108.0000
37.6811	90.0000
37.6904	91.0000
37.6996	77.0000
37.7088	91.0000
37.7180	103.0000
37.7273	93.0000
37.7365	102.0000
37.7457	103.0000
37.7549	117.0000
37.7641	89.0000
37.7734	94.0000
37.7826	111.0000
37.7918	98.0000
37.8010	88.0000
37.8103	97.0000
37.8195	121.0000
37.8287	81.0000
37.8379	110.0000
37.8472	107.0000
37.8564	79.0000
37.8656	102.0000
37.8748	111.0000
37.8840	101.0000
37.8933	93.0000
37.9025	82.0000
37.9117	102.0000
37.9209	101.0000
37.9302	110.0000
37.9394	89.0000
37.9486	98.0000
37.9578	98.0000
37.9670	91.0000
37.9763	94.0000
37.9855	94.0000
37.9947	85.0000
38.0039	100.0000
38.0132	95.0000
38.0224	110.0000
38.0316	81.0000
38.0408	92.0000
38.0501	104.0000
38.0593	87.0000
38.0685	107.0000
38.0777	89.0000
38.0869	102.0000
38.0962	87.0000
38.1054	86.0000
38.1146	107.0000
38.1238	96.0000
38.1331	102.0000
38.1423	82.0000
38.1515	82.0000
38.1607	103.0000
38.1699	103.0000
38.1792	115.0000
38.1884	102.0000
38.1976	91.0000
38.2068	70.0000
38.2161	99.0000
38.2253	70.0000
38.2345	93.0000
38.2437	89.0000
38.2529	89.0000
38.2622	106.0000
38.2714	92.0000
38.2806	84.0000
38.2898	96.0000
38.2991	104.0000
38.3083	96.0000
38.3175	88.0000
38.3267	94.0000
38.3360	101.0000
38.3452	99.0000
38.3544	104.0000
38.3636	97.0000
38.3728	104.0000
38.3821	82.0000
38.3913	91.0000
38.4005	115.0000
38.4097	75.0000
38.4190	105.0000
38.4282	93.0000
38.4374	85.0000
38.4466	84.0000
38.4558	100.0000
38.4651	77.0000
38.4743	95.0000
38.4835	95.0000
38.4927	112.0000
38.5020	92.0000
38.5112	91.0000
38.5204	83.0000
38.5296	81.0000
38.5389	113.0000
38.5481	88.0000
38.5573	89.0000
38.5665	84.0000
38.5757	95.0000
38.5850	96.0000
38.5942	102.0000
38.6034	102.0000
38.6126	98.0000
38.6219	93.0000
38.6311	92.0000
38.6403	89.0000
38.6495	104.0000
38.6587	90.0000
38.6680	93.0000
38.6772	101.0000
38.6864	93.0000
38.6956	99.0000
38.7049	99.0000
38.7141	86.0000
38.7233	78.0000
38.7325	87.0000
38.7417	100.0000
38.7510	101.0000
38.7602	88.0000
38.7694	100.0000
38.7786	99.0000
38.7879	88.0000
38.7971	84.0000
38.8063	78.0000
38.8155	104.0000
38.8248	89.0000
38.8340	110.0000
38.8432	92.0000
38.8524	99.0000
38.8616	104.0000
38.8709	103.0000
38.8801	107.0000
38.8893	89.0000
38.8985	84.0000
38.9078	84.0000
38.9170	76.0000
38.9262	91.0000
38.9354	100.0000
38.9446	89.0000
38.9539	97.0000
38.9631	84.0000
38.9723	81.0000
38.9815	105.0000
38.9908	94.0000
39.0000	83.0000
39.0092	85.0000
39.0184	91.0000
39.0277	100.0000
39.0369	86.0000
39.0461	100.0000
39.0553	101.0000
39.0645	83.0000
39.0738	84.0000
39.0830	102.0000
39.0922	92.0000
39.1014	95.0000
39.1107	86.0000
39.1199	98.0000
39.1291	86.0000
39.1383	91.0000
39.1475	88.0000
39.1568	99.0000
39.1660	91.0000
39.1752	99.0000
39.1844	90.0000
39.1937	86.0000
39.2029	103.0000
39.2121	104.0000
39.2213	96.0000
39.2306	95.0000
39.2398	108.0000
39.2490	100.0000
39.2582	101.0000
39.2674	86.0000
39.2767	82.0000
39.2859	91.0000
39.2951	78.0000
39.3043	79.0000
39.3136	86.0000
39.3228	78.0000
39.3320	95.0000
39.3412	82.0000
39.3504	97.0000
39.3597	92.0000
39.3689	95.0000
39.3781	89.0000
39.3873	111.0000
39.3966	85.0000
39.4058	87.0000
39.4150	90.0000
39.4242	106.0000
39.4334	85.0000
39.4427	77.0000
39.4519	77.0000
39.4611	94.0000
39.4703	82.0000
39.4796	84.0000
39.4888	83.0000
39.4980	85.0000
39.5072	84.0000
39.5165	91.0000
39.5257	91.0000
39.5349	89.0000
39.5441	100.0000
39.5533	82.0000
39.5626	81.0000
39.5718	97.0000
39.5810	84.0000
39.5902	100.0000
39.5995	100.0000
39.6087	93.0000
39.6179	95.0000
39.6271	107.0000
39.6363	114.0000
39.6456	133.0000
39.6548	164.0000
39.6640	168.0000
39.6732	259.0000
39.6825	262.0000
39.6917	245.0000
39.7009	212.0000
39.7101	190.0000
39.7194	148.0000
39.7286	122.0000
39.7378	127.0000
39.7470	118.0000
39.7562	112.0000
39.7655	102.0000
39.7747	98.0000
39.7839	101.0000
39.7931	98.0000
39.8024	92.0000
39.8116	114.0000
39.8208	110.0000
39.8300	95.0000
39.8392	84.0000
39.8485	104.0000
39.8577	97.0000
39.8669	91.0000
39.8761	110.0000
39.8854	97.0000
39.8946	92.0000
39.9038	141.0000
39.9130	153.0000
39.9222	193.0000
39.9315	177.0000
39.9407	174.0000
39.9499	156.0000
39.9591	142.0000
39.9684	113.0000
39.9776	109.0000
39.9868	106.0000
39.9960	88.0000
40.0053	98.0000
40.0145	80.0000
40.0237	100.0000
40.0329	80.0000
40.0421	102.0000
40.0514	102.0000
40.0606	96.0000
40.0698	89.0000
40.0790	76.0000
40.0883	103.0000
40.0975	92.0000
40.1067	96.0000
40.1159	91.0000
40.1251	83.0000
40.1344	89.0000
40.1436	97.0000
40.1528	75.0000
40.1620	92.0000
40.1713	91.0000
40.1805	88.0000
40.1897	73.0000
40.1989	73.0000
40.2082	93.0000
40.2174	98.0000
40.2266	109.0000
40.2358	82.0000
40.2450	85.0000
40.2543	96.0000
40.2635	112.0000
40.2727	106.0000
40.2819	84.0000
40.2912	89.0000
40.3004	92.0000
40.3096	106.0000
40.3188	91.0000
40.3280	95.0000
40.3373	95.0000
40.3465	82.0000
40.3557	89.0000
40.3649	95.0000
40.3742	98.0000
40.3834	110.0000
40.3926	80.0000
40.4018	97.0000
40.4111	96.0000
40.4203	79.0000
40.4295	100.0000
40.4387	105.0000
40.4479	94.0000
40.4572	95.0000
40.4664	93.0000
40.4756	111.0000
40.4848	86.0000
40.4941	89.0000
40.5033	104.0000
40.5125	99.0000
40.5217	93.0000
40.5309	82.0000
40.5402	78.0000
40.5494	103.0000
40.5586	80.0000
40.5678	87.0000
40.5771	78.0000
40.5863	83.0000
40.5955	94.0000
40.6047	95.0000
40.6139	76.0000
40.6232	93.0000
40.6324	90.0000
40.6416	100.0000
40.6508	78.0000
40.6601	74.0000
40.6693	84.0000
40.6785	92.0000
40.6877	96.0000
40.6970	80.0000
40.7062	78.0000
40.7154	83.0000
40.7246	95.0000
40.7338	91.0000
40.7431	102.0000
40.7523	103.0000
40.7615	92.0000
40.7707	82.0000
40.7800	70.0000
40.7892	97.0000
40.7984	89.0000
40.8076	79.0000
40.8168	83.0000
40.8261	103.0000
40.8353	75.0000
40.8445	83.0000
40.8537	80.0000
40.8630	94.0000
40.8722	92.0000
40.8814	84.0000
40.8906	74.0000
40.8999	72.0000
40.9091	84.0000
40.9183	78.0000
40.9275	72.0000
40.9367	105.0000
40.9460	105.0000
40.9552	97.0000
40.9644	88.0000
40.9736	82.0000
40.9829	87.0000
40.9921	92.0000
41.0013	89.0000
41.0105	98.0000
41.0197	78.0000
41.0290	95.0000
41.0382	86.0000
41.0474	99.0000
41.0566	82.0000
41.0659	110.0000
41.0751	104.0000
41.0843	83.0000
41.0935	83.0000
41.1027	94.0000
41.1120	84.0000
41.1212	100.0000
41.1304	82.0000
41.1396	73.0000
41.1489	97.0000
41.1581	94.0000
41.1673	92.0000
41.1765	74.0000
41.1858	90.0000
41.1950	73.0000
41.2042	99.0000
41.2134	90.0000
41.2226	101.0000
41.2319	70.0000
41.2411	96.0000
41.2503	75.0000
41.2595	86.0000
41.2688	89.0000
41.2780	96.0000
41.2872	95.0000
41.2964	95.0000
41.3056	91.0000
41.3149	95.0000
41.3241	94.0000
41.3333	84.0000
41.3425	89.0000
41.3518	86.0000
41.3610	82.0000
41.3702	90.0000
41.3794	90.0000
41.3887	71.0000
41.3979	88.0000
41.4071	92.0000
41.4163	70.0000
41.4255	87.0000
41.4348	86.0000
41.4440	73.0000
41.4532	94.0000
41.4624	92.0000
41.4717	99.0000
41.4809	105.0000
41.4901	86.0000
41.4993	73.0000
41.5085	78.0000
41.5178	99.0000
41.5270	92.0000
41.5362	82.0000
41.5454	101.0000
41.5547	93.0000
41.5639	100.0000
41.5731	106.0000
41.5823	79.0000
41.5915	91.0000
41.6008	84.0000
41.6100	99.0000
41.6192	94.0000
41.6284	88.0000
41.6377	87.0000
41.6469	87.0000
41.6561	91.0000
41.6653	72.0000
41.6746	100.0000
41.6838	94.0000
41.6930	80.0000
41.7022	91.0000
41.7114	98.0000
41.7207	85.0000
41.7299	101.0000
41.7391	85.0000
41.7483	79.0000
41.7576	99.0000
41.7668	88.0000
41.7760	81.0000
41.7852	81.0000
41.7944	77.0000
41.8037	87.0000
41.8129	88.0000
41.8221	98.0000
41.8313	98.0000
41.8406	93.0000
41.8498	79.0000
41.8590	84.0000
41.8682	86.0000
41.8775	99.0000
41.8867	77.0000
41.8959	90.0000
41.9051	87.0000
41.9143	83.0000
41.9236	81.0000
41.9328	90.0000
41.9420	72.0000
41.9512	78.0000
41.9605	80.0000
41.9697	83.0000
41.9789	98.0000
41.9881	98.0000
41.9973	86.0000
42.0066	85.0000
42.0158	86.0000
42.0250	77.0000
42.0342	72.0000
42.0435	81.0000
42.0527	101.0000
42.0619	88.0000
42.0711	86.0000
42.0804	60.0000
42.0896	78.0000
42.0988	84.0000
42.1080	78.0000
42.1172	113.0000
42.1265	87.0000
42.1357	93.0000
42.1449	91.0000
42.1541	99.0000
42.1634	76.0000
42.1726	85.0000
42.1818	88.0000
42.1910	80.0000
42.2002	95.0000
42.2095	85.0000
42.2187	90.0000
42.2279	96.0000
42.2371	79.0000
42.2464	94.0000
42.2556	100.0000
42.2648	81.0000
42.2740	88.0000
42.2832	82.0000
42.2925	98.0000
42.3017	66.0000
42.3109	91.0000
42.3201	95.0000
42.3294	92.0000
42.3386	79.0000
42.3478	93.0000
42.3570	85.0000
42.3663	99.0000
42.3755	75.0000
42.3847	102.0000
42.3939	98.0000
42.4031	66.0000
42.4124	92.0000
42.4216	86.0000
42.4308	95.0000
42.4400	91.0000
42.4493	89.0000
42.4585	99.0000
42.4677	82.0000
42.4769	109.0000
42.4861	88.0000
42.4954	85.0000
42.5046	70.0000
42.5138	92.0000
42.5230	87.0000
42.5323	83.0000
42.5415	97.0000
42.5507	83.0000
42.5599	83.0000
42.5692	79.0000
42.5784	86.0000
42.5876	91.0000
42.5968	96.0000
42.6060	81.0000
42.6153	92.0000
42.6245	92.0000
42.6337	84.0000
42.6429	73.0000
42.6522	70.0000
42.6614	101.0000
42.6706	85.0000
42.6798	87.0000
42.6890	92.0000
42.6983	83.0000
42.7075	89.0000
42.7167	90.0000
42.7259	81.0000
42.7352	87.0000
42.7444	99.0000
42.7536	92.0000
42.7628	97.0000
42.7720	89.0000
42.7813	94.0000
42.7905	83.0000
42.7997	97.0000
42.8089	91.0000
42.8182	95.0000
42.8274	107.0000
42.8366	94.0000
42.8458	91.0000
42.8551	82.0000
42.8643	79.0000
42.8735	89.0000
42.8827	99.0000
42.8919	96.0000
42.9012	93.0000
42.9104	86.0000
42.9196	107.0000
42.9288	95.0000
42.9381	84.0000
42.9473	91.0000
42.9565	87.0000
42.9657	91.0000
42.9749	95.0000
42.9842	85.0000
42.9934	94.0000
43.0026	74.0000
43.0118	102.0000
43.0211	77.0000
43.0303	81.0000
43.0395	94.0000
43.0487	95.0000
43.0580	69.0000
43.0672	88.0000
43.0764	89.0000
43.0856	99.0000
43.0948	100.0000
43.1041	107.0000
43.1133	77.0000
43.1225	87.0000
43.1317	83.0000
43.1410	85.0000
43.1502	87.0000
43.1594	84.0000
43.1686	94.0000
43.1778	76.0000
43.1871	93.0000
43.1963	91.0000
43.2055	103.0000
43.2147	79.0000
43.2240	92.0000
43.2332	107.0000
43.2424	83.0000
43.2516	83.0000
43.2609	77.0000
43.2701	79.0000
43.2793	98.0000
43.2885	82.0000
43.2977	89.0000
43.3070	88.0000
43.3162	94.0000
43.3254	98.0000
43.3346	125.0000
43.3439	145.0000
43.3531	150.0000
43.3623	177.0000
43.3715	160.0000
43.3807	171.0000
43.3900	150.0000
43.3992	158.0000
43.4084	134.0000
43.4176	100.0000
43.4269	79.0000
43.4361	113.0000
43.4453	78.0000
43.4545	105.0000
43.4637	87.0000
43.4730	91.0000
43.4822	86.0000
43.4914	90.0000
43.5006	99.0000
43.5099	79.0000
43.5191	105.0000
43.5283	95.0000
43.5375	96.0000
43.5468	94.0000
43.5560	87.0000
43.5652	88.0000
43.5744	109.0000
43.5836	98.0000
43.5929	90.0000
43.6021	105.0000
43.6113	107.0000
43.6205	100.0000
43.6298	121.0000
43.6390	113.0000
43.6482	133.0000
43.6574	136.0000
43.6666	119.0000
43.6759	108.0000
43.6851	90.0000
43.6943	107.0000
43.7035	90.0000
43.7128	108.0000
43.7220	85.0000
43.7312	73.0000
43.7404	67.0000
43.7497	97.0000
43.7589	70.0000
43.7681	76.0000
43.7773	95.0000
43.7865	83.0000
43.7958	89.0000
43.8050	74.0000
43.8142	100.0000
43.8234	100.0000
43.8327	75.0000
43.8419	85.0000
43.8511	90.0000
43.8603	87.0000
43.8695	85.0000
43.8788	65.0000
43.8880	76.0000
43.8972	85.0000
43.9064	76.0000
43.9157	88.0000
43.9249	79.0000
43.9341	80.0000
43.9433	72.0000
43.9525	94.0000
43.9618	95.0000
43.9710	95.0000
43.9802	80.0000
43.9894	93.0000
43.9987	81.0000
44.0079	90.0000
44.0171	75.0000
44.0263	80.0000
44.0356	69.0000
44.0448	77.0000
44.0540	80.0000
44.0632	98.0000
44.0724	78.0000
44.0817	78.0000
44.0909	80.0000
44.1001	90.0000
44.1093	94.0000
44.1186	72.0000
44.1278	90.0000
44.1370	102.0000
44.1462	102.0000
44.1554	73.0000
44.1647	95.0000
44.1739	80.0000
44.1831	80.0000
44.1923	112.0000
44.2016	84.0000
44.2108	78.0000
44.2200	77.0000
44.2292	88.0000
44.2385	69.0000
44.2477	84.0000
44.2569	90.0000
44.2661	74.0000
44.2753	93.0000
44.2846	66.0000
44.2938	86.0000
44.3030	70.0000
44.3122	92.0000
44.3215	82.0000
44.3307	75.0000
44.3399	92.0000
44.3491	79.0000
44.3583	88.0000
44.3676	102.0000
44.3768	105.0000
44.3860	91.0000
44.3952	74.0000
44.4045	73.0000
44.4137	84.0000
44.4229	65.0000
44.4321	77.0000
44.4414	79.0000
44.4506	96.0000
44.4598	81.0000
44.4690	79.0000
44.4782	112.0000
44.4875	71.0000
44.4967	70.0000
44.5059	87.0000
44.5151	82.0000
44.5244	79.0000
44.5336	93.0000
44.5428	78.0000
44.5520	94.0000
44.5612	90.0000
44.5705	98.0000
44.5797	77.0000
44.5889	68.0000
44.5981	97.0000
44.6074	91.0000
44.6166	88.0000
44.6258	80.0000
44.6350	90.0000
44.6442	93.0000
44.6535	80.0000
44.6627	72.0000
44.6719	84.0000
44.6811	86.0000
44.6904	85.0000
44.6996	92.0000
44.7088	88.0000
44.7180	77.0000
44.7273	82.0000
44.7365	81.0000
44.7457	77.0000
44.7549	72.0000
44.7641	84.0000
44.7734	81.0000
44.7826	64.0000
44.7918	75.0000
44.8010	81.0000
44.8103	85.0000
44.8195	82.0000
44.8287	77.0000
44.8379	73.0000
44.8471	75.0000
44.8564	70.0000
44.8656	82.0000
44.8748	65.0000
44.8840	85.0000
44.8933	88.0000
44.9025	82.0000
44.9117	94.0000
44.9209	94.0000
44.9302	74.0000
44.9394	81.0000
44.9486	85.0000
44.9578	91.0000
44.9670	88.0000
44.9763	89.0000
44.9855	77.0000
44.9947	75.0000
45.0039	70.0000
45.0132	70.0000
45.0224	78.0000
45.0316	84.0000
45.0408	73.0000
45.0500	84.0000
45.0593	103.0000
45.0685	103.0000
45.0777	87.0000
45.0869	78.0000
45.0962	71.0000
45.1054	72.0000
45.1146	92.0000
45.1238	71.0000
45.1330	91.0000
45.1423	79.0000
45.1515	71.0000
45.1607	70.0000
45.1699	76.0000
45.1792	82.0000
45.1884	91.0000
45.1976	81.0000
45.2068	78.0000
45.2161	73.0000
45.2253	66.0000
45.2345	90.0000
45.2437	71.0000
45.2529	96.0000
45.2622	70.0000
45.2714	76.0000
45.2806	79.0000
45.2898	68.0000
45.2991	73.0000
45.3083	74.0000
45.3175	77.0000
45.3267	76.0000
45.3359	84.0000
45.3452	58.0000
45.3544	93.0000
45.3636	70.0000
45.3728	97.0000
45.3821	88.0000
45.3913	72.0000
45.4005	77.0000
45.4097	91.0000
45.4190	70.0000
45.4282	81.0000
45.4374	74.0000
45.4466	94.0000
45.4558	89.0000
45.4651	90.0000
45.4743	77.0000
45.4835	79.0000
45.4927	80.0000
45.5020	85.0000
45.5112	96.0000
45.5204	81.0000
45.5296	83.0000
45.5388	81.0000
45.5481	89.0000
45.5573	81.0000
45.5665	85.0000
45.5757	72.0000
45.5850	73.0000
45.5942	100.0000
45.6034	74.0000
45.6126	93.0000
45.6219	71.0000
45.6311	83.0000
45.6403	83.0000
45.6495	61.0000
45.6587	94.0000
45.6680	69.0000
45.6772	69.0000
45.6864	85.0000
45.6956	66.0000
45.7049	64.0000
45.7141	82.0000
45.7233	79.0000
45.7325	83.0000
45.7417	99.0000
45.7510	89.0000
45.7602	81.0000
45.7694	72.0000
45.7786	83.0000
45.7879	73.0000
45.7971	86.0000
45.8063	77.0000
45.8155	68.0000
45.8247	77.0000
45.8340	77.0000
45.8432	72.0000
45.8524	82.0000
45.8616	74.0000
45.8709	67.0000
45.8801	77.0000
45.8893	78.0000
45.8985	75.0000
45.9078	69.0000
45.9170	102.0000
45.9262	83.0000
45.9354	83.0000
45.9446	69.0000
45.9539	90.0000
45.9631	64.0000
45.9723	66.0000
45.9815	70.0000
45.9908	79.0000
46.0000	75.0000
46.0092	95.0000
46.0184	79.0000
46.0276	82.0000
46.0369	78.0000
46.0461	68.0000
46.0553	88.0000
46.0645	73.0000
46.0738	66.0000
46.0830	75.0000
46.0922	79.0000
46.1014	64.0000
46.1107	70.0000
46.1199	66.0000
46.1291	78.0000
46.1383	71.0000
46.1475	71.0000
46.1568	72.0000
46.1660	87.0000
46.1752	77.0000
46.1844	70.0000
46.1937	68.0000
46.2029	75.0000
46.2121	74.0000
46.2213	69.0000
46.2305	82.0000
46.2398	81.0000
46.2490	79.0000
46.2582	81.0000
46.2674	72.0000
46.2767	74.0000
46.2859	77.0000
46.2951	81.0000
46.3043	72.0000
46.3135	71.0000
46.3228	71.0000
46.3320	67.0000
46.3412	79.0000
46.3504	72.0000
46.3597	74.0000
46.3689	63.0000
46.3781	58.0000
46.3873	87.0000
46.3966	62.0000
46.4058	70.0000
46.4150	71.0000
46.4242	87.0000
46.4334	85.0000
46.4427	65.0000
46.4519	67.0000
46.4611	74.0000
46.4703	82.0000
46.4796	65.0000
46.4888	64.0000
46.4980	77.0000
46.5072	69.0000
46.5164	92.0000
46.5257	77.0000
46.5349	83.0000
46.5441	88.0000
46.5533	75.0000
46.5626	60.0000
46.5718	74.0000
46.5810	59.0000
46.5902	74.0000
46.5995	63.0000
46.6087	82.0000
46.6179	78.0000
46.6271	72.0000
46.6363	75.0000
46.6456	72.0000
46.6548	75.0000
46.6640	73.0000
46.6732	73.0000
46.6825	83.0000
46.6917	68.0000
46.7009	71.0000
46.7101	67.0000
46.7193	60.0000
46.7286	91.0000
46.7378	85.0000
46.7470	80.0000
46.7562	73.0000
46.7655	54.0000
46.7747	77.0000
46.7839	70.0000
46.7931	74.0000
46.8024	79.0000
46.8116	77.0000
46.8208	73.0000
46.8300	87.0000
46.8392	57.0000
46.8485	64.0000
46.8577	78.0000
46.8669	67.0000
46.8761	79.0000
46.8854	75.0000
46.8946	75.0000
46.9038	67.0000
46.9130	71.0000
46.9222	61.0000
46.9315	85.0000
46.9407	74.0000
46.9499	74.0000
46.9591	69.0000
46.9684	70.0000
46.9776	73.0000
46.9868	65.0000
46.9960	68.0000
47.0052	83.0000
47.0145	80.0000
47.0237	67.0000
47.0329	64.0000
47.0421	73.0000
47.0514	60.0000
47.0606	87.0000
47.0698	64.0000
47.0790	77.0000
47.0883	69.0000
47.0975	60.0000
47.1067	59.0000
47.1159	85.0000
47.1251	81.0000
47.1344	73.0000
47.1436	68.0000
47.1528	65.0000
47.1620	77.0000
47.1713	75.0000
47.1805	67.0000
47.1897	79.0000
47.1989	73.0000
47.2081	93.0000
47.2174	66.0000
47.2266	74.0000
47.2358	71.0000
47.2450	78.0000
47.2543	73.0000
47.2635	76.0000
47.2727	77.0000
47.2819	62.0000
47.2912	68.0000
47.3004	74.0000
47.3096	77.0000
47.3188	62.0000
47.3280	62.0000
47.3373	73.0000
47.3465	65.0000
47.3557	57.0000
47.3649	61.0000
47.3742	64.0000
47.3834	70.0000
47.3926	71.0000
47.4018	64.0000
47.4110	82.0000
47.4203	64.0000
47.4295	73.0000
47.4387	64.0000
47.4479	57.0000
47.4572	64.0000
47.4664	72.0000
47.4756	71.0000
47.4848	73.0000
47.4940	64.0000
47.5033	79.0000
47.5125	72.0000
47.5217	73.0000
47.5309	74.0000
47.5402	74.0000
47.5494	70.0000
47.5586	52.0000
47.5678	53.0000
47.5771	67.0000
47.5863	78.0000
47.5955	76.0000
47.6047	64.0000
47.6139	77.0000
47.6232	63.0000
47.6324	70.0000
47.6416	82.0000
47.6508	78.0000
47.6601	60.0000
47.6693	67.0000
47.6785	70.0000
47.6877	66.0000
47.6969	75.0000
47.7062	61.0000
47.7154	59.0000
47.7246	69.0000
47.7338	69.0000
47.7431	65.0000
47.7523	72.0000
47.7615	87.0000
47.7707	48.0000
47.7800	67.0000
47.7892	66.0000
47.7984	71.0000
47.8076	60.0000
47.8168	68.0000
47.8261	62.0000
47.8353	61.0000
47.8445	75.0000
47.8537	73.0000
47.8630	69.0000
47.8722	84.0000
47.8814	65.0000
47.8906	63.0000
47.8998	59.0000
47.9091	77.0000
47.9183	74.0000
47.9275	50.0000
47.9367	59.0000
47.9460	78.0000
47.9552	64.0000
47.9644	72.0000
47.9736	83.0000
47.9829	57.0000
47.9921	54.0000
48.0013	57.0000
