11.0000	616.0000
11.0092	639.0000
11.0184	599.0000
11.0277	632.0000
11.0369	591.0000
11.0461	609.0000
11.0553	568.0000
11.0646	633.0000
11.0738	617.0000
11.0830	572.0000
11.0922	631.0000
11.1014	550.0000
11.1107	605.0000
11.1199	564.0000
11.1291	574.0000
11.1383	608.0000
11.1476	554.0000
11.1568	609.0000
11.1660	605.0000
11.1752	565.0000
11.1845	582.0000
11.1937	566.0000
11.2029	572.0000
11.2121	582.0000
11.2213	550.0000
11.2306	634.0000
11.2398	571.0000
11.2490	630.0000
11.2582	594.0000
11.2675	544.0000
11.2767	550.0000
11.2859	541.0000
11.2951	568.0000
11.3043	547.0000
11.3136	582.0000
11.3228	554.0000
11.3320	573.0000
11.3412	570.0000
11.3505	543.0000
11.3597	577.0000
11.3689	521.0000
11.3781	519.0000
11.3874	552.0000
11.3966	542.0000
11.4058	526.0000
11.4150	542.0000
11.4242	559.0000
11.4335	542.0000
11.4427	548.0000
11.4519	531.0000
11.4611	508.0000
11.4704	522.0000
11.4796	520.0000
11.4888	550.0000
11.4980	497.0000
11.5072	549.0000
11.5165	520.0000
11.5257	498.0000
11.5349	546.0000
11.5441	517.0000
11.5534	542.0000
11.5626	545.0000
11.5718	545.0000
11.5810	512.0000
11.5902	534.0000
11.5995	501.0000
11.6087	522.0000
11.6179	496.0000
11.6271	499.0000
11.6364	485.0000
11.6456	490.0000
11.6548	482.0000
11.6640	503.0000
11.6733	511.0000
11.6825	507.0000
11.6917	481.0000
11.7009	508.0000
11.7101	479.0000
11.7194	496.0000
11.7286	456.0000
11.7378	507.0000
11.7470	474.0000
11.7563	468.0000
11.7655	443.0000
11.7747	428.0000
11.7839	499.0000
11.7931	456.0000
11.8024	482.0000
11.8116	494.0000
11.8208	495.0000
11.8300	501.0000
11.8393	452.0000
11.8485	471.0000
11.8577	481.0000
11.8669	443.0000
11.8762	463.0000
11.8854	427.0000
11.8946	478.0000
11.9038	477.0000
11.9130	471.0000
11.9223	481.0000
11.9315	454.0000
11.9407	439.0000
11.9499	468.0000
11.9592	472.0000
11.9684	457.0000
11.9776	469.0000
11.9868	421.0000
11.9960	407.0000
12.0053	481.0000
12.0145	449.0000
12.0237	435.0000
12.0329	447.0000
12.0422	468.0000
12.0514	446.0000
12.0606	431.0000
12.0698	480.0000
12.0791	450.0000
12.0883	409.0000
12.0975	439.0000
12.1067	449.0000
12.1159	443.0000
12.1252	452.0000
12.1344	450.0000
12.1436	442.0000
12.1528	453.0000
12.1621	452.0000
12.1713	417.0000
12.1805	427.0000
12.1897	410.0000
12.1989	439.0000
12.2082	415.0000
12.2174	436.0000
12.2266	461.0000
12.2358	435.0000
12.2451	417.0000
12.2543	442.0000
12.2635	381.0000
12.2727	433.0000
12.2819	413.0000
12.2912	434.0000
12.3004	436.0000
12.3096	409.0000
12.3188	417.0000
12.3281	422.0000
12.3373	363.0000
12.3465	438.0000
12.3557	392.0000
12.3650	412.0000
12.3742	401.0000
12.3834	395.0000
12.3926	364.0000
12.4018	404.0000
12.4111	410.0000
12.4203	378.0000
12.4295	386.0000
12.4387	407.0000
12.4480	406.0000
12.4572	390.0000
12.4664	396.0000
12.4756	378.0000
12.4848	363.0000
12.4941	393.0000
12.5033	406.0000
12.5125	393.0000
12.5217	406.0000
12.5310	353.0000
12.5402	342.0000
12.5494	392.0000
12.5586	359.0000
12.5679	401.0000
12.5771	376.0000
12.5863	397.0000
12.5955	363.0000
12.6047	378.0000
12.6140	377.0000
12.6232	356.0000
12.6324	378.0000
12.6416	371.0000
12.6509	342.0000
12.6601	404.0000
12.6693	386.0000
12.6785	403.0000
12.6877	387.0000
12.6970	403.0000
12.7062	395.0000
12.7154	370.0000
12.7246	382.0000
12.7339	377.0000
12.7431	366.0000
12.7523	349.0000
12.7615	374.0000
12.7707	360.0000
12.7800	358.0000
12.7892	329.0000
12.7984	373.0000
12.8076	367.0000
12.8169	334.0000
12.8261	361.0000
12.8353	357.0000
12.8445	367.0000
12.8538	365.0000
12.8630	344.0000
12.8722	343.0000
12.8814	351.0000
12.8906	402.0000
12.8999	369.0000
12.9091	338.0000
12.9183	371.0000
12.9275	352.0000
12.9368	323.0000
12.9460	344.0000
12.9552	330.0000
12.9644	359.0000
12.9736	372.0000
12.9829	396.0000
12.9921	345.0000
13.0013	283.0000
13.0105	350.0000
13.0198	318.0000
13.0290	334.0000
13.0382	372.0000
13.0474	359.0000
13.0567	336.0000
13.0659	370.0000
13.0751	334.0000
13.0843	337.0000
13.0935	363.0000
13.1028	333.0000
13.1120	316.0000
13.1212	339.0000
13.1304	355.0000
13.1397	329.0000
13.1489	350.0000
13.1581	324.0000
13.1673	380.0000
13.1765	345.0000
13.1858	323.0000
13.1950	317.0000
13.2042	327.0000
13.2134	359.0000
13.2227	327.0000
13.2319	335.0000
13.2411	336.0000
13.2503	323.0000
13.2596	318.0000
13.2688	337.0000
13.2780	313.0000
13.2872	340.0000
13.2964	345.0000
13.3057	341.0000
13.3149	302.0000
13.3241	331.0000
13.3333	347.0000
13.3426	326.0000
13.3518	326.0000
13.3610	304.0000
13.3702	293.0000
13.3794	338.0000
13.3887	340.0000
13.3979	298.0000
13.4071	309.0000
13.4163	317.0000
13.4256	308.0000
13.4348	315.0000
13.4440	334.0000
13.4532	318.0000
13.4624	318.0000
13.4717	316.0000
13.4809	288.0000
13.4901	317.0000
13.4993	287.0000
13.5086	290.0000
13.5178	342.0000
13.5270	293.0000
13.5362	287.0000
13.5455	300.0000
13.5547	334.0000
13.5639	313.0000
13.5731	328.0000
13.5823	302.0000
13.5916	293.0000
13.6008	311.0000
13.6100	289.0000
13.6192	316.0000
13.6285	270.0000
13.6377	302.0000
13.6469	294.0000
13.6561	317.0000
13.6653	296.0000
13.6746	277.0000
13.6838	300.0000
13.6930	326.0000
13.7022	347.0000
13.7115	291.0000
13.7207	303.0000
13.7299	309.0000
13.7391	320.0000
13.7484	292.0000
13.7576	288.0000
13.7668	303.0000
13.7760	338.0000
13.7852	303.0000
13.7945	268.0000
13.8037	306.0000
13.8129	287.0000
13.8221	307.0000
13.8314	320.0000
13.8406	306.0000
13.8498	309.0000
13.8590	274.0000
13.8682	291.0000
13.8775	296.0000
13.8867	296.0000
13.8959	290.0000
13.9051	318.0000
13.9144	281.0000
13.9236	289.0000
13.9328	299.0000
13.9420	307.0000
13.9512	300.0000
13.9605	313.0000
13.9697	270.0000
13.9789	276.0000
13.9881	301.0000
13.9974	293.0000
14.0066	291.0000
14.0158	290.0000
14.0250	270.0000
14.0343	278.0000
14.0435	265.0000
14.0527	273.0000
14.0619	287.0000
14.0711	260.0000
14.0804	287.0000
14.0896	281.0000
14.0988	260.0000
14.1080	296.0000
14.1173	297.0000
14.1265	260.0000
14.1357	288.0000
14.1449	296.0000
14.1541	242.0000
14.1634	265.0000
14.1726	288.0000
14.1818	264.0000
14.1910	235.0000
14.2003	266.0000
14.2095	274.0000
14.2187	284.0000
14.2279	251.0000
14.2372	277.0000
14.2464	267.0000
14.2556	288.0000
14.2648	301.0000
14.2740	297.0000
14.2833	246.0000
14.2925	260.0000
14.3017	273.0000
14.3109	269.0000
14.3202	270.0000
14.3294	256.0000
14.3386	274.0000
14.3478	273.0000
14.3570	265.0000
14.3663	258.0000
14.3755	292.0000
14.3847	267.0000
14.3939	264.0000
14.4032	289.0000
14.4124	296.0000
14.4216	311.0000
14.4308	296.0000
14.4401	265.0000
14.4493	294.0000
14.4585	230.0000
14.4677	283.0000
14.4769	273.0000
14.4862	266.0000
14.4954	268.0000
14.5046	280.0000
14.5138	293.0000
14.5231	276.0000
14.5323	254.0000
14.5415	251.0000
14.5507	243.0000
14.5599	282.0000
14.5692	264.0000
14.5784	281.0000
14.5876	268.0000
14.5968	262.0000
14.6061	248.0000
14.6153	274.0000
14.6245	282.0000
14.6337	257.0000
14.6429	266.0000
14.6522	266.0000
14.6614	266.0000
14.6706	245.0000
14.6798	242.0000
14.6891	262.0000
14.6983	248.0000
14.7075	258.0000
14.7167	254.0000
14.7260	253.0000
14.7352	272.0000
14.7444	265.0000
14.7536	269.0000
14.7628	268.0000
14.7721	264.0000
14.7813	251.0000
14.7905	257.0000
14.7997	245.0000
14.8090	254.0000
14.8182	285.0000
14.8274	281.0000
14.8366	232.0000
14.8458	262.0000
14.8551	254.0000
14.8643	219.0000
14.8735	244.0000
14.8827	229.0000
14.8920	251.0000
14.9012	247.0000
14.9104	236.0000
14.9196	246.0000
14.9289	265.0000
14.9381	266.0000
14.9473	253.0000
14.9565	236.0000
14.9657	248.0000
14.9750	242.0000
14.9842	236.0000
14.9934	247.0000
15.0026	261.0000
15.0119	258.0000
15.0211	222.0000
15.0303	239.0000
15.0395	250.0000
15.0487	264.0000
15.0580	235.0000
15.0672	234.0000
15.0764	247.0000
15.0856	244.0000
15.0949	251.0000
15.1041	280.0000
15.1133	251.0000
15.1225	262.0000
15.1317	233.0000
15.1410	260.0000
15.1502	274.0000
15.1594	204.0000
15.1686	256.0000
15.1779	216.0000
15.1871	247.0000
15.1963	260.0000
15.2055	223.0000
15.2148	233.0000
15.2240	237.0000
15.2332	254.0000
15.2424	222.0000
15.2516	243.0000
15.2609	241.0000
15.2701	224.0000
15.2793	231.0000
15.2885	237.0000
15.2978	240.0000
15.3070	222.0000
15.3162	227.0000
15.3254	260.0000
15.3346	258.0000
15.3439	230.0000
15.3531	251.0000
15.3623	232.0000
15.3715	220.0000
15.3808	237.0000
15.3900	230.0000
15.3992	218.0000
15.4084	234.0000
15.4177	233.0000
15.4269	240.0000
15.4361	245.0000
15.4453	214.0000
15.4545	232.0000
15.4638	207.0000
15.4730	248.0000
15.4822	250.0000
15.4914	225.0000
15.5007	242.0000
15.5099	206.0000
15.5191	230.0000
15.5283	214.0000
15.5375	229.0000
15.5468	248.0000
15.5560	235.0000
15.5652	232.0000
15.5744	249.0000
15.5837	204.0000
15.5929	234.0000
15.6021	206.0000
15.6113	245.0000
15.6206	240.0000
15.6298	219.0000
15.6390	252.0000
15.6482	242.0000
15.6574	247.0000
15.6667	250.0000
15.6759	241.0000
15.6851	225.0000
15.6943	230.0000
15.7036	246.0000
15.7128	237.0000
15.7220	258.0000
15.7312	229.0000
15.7404	246.0000
15.7497	230.0000
15.7589	234.0000
15.7681	221.0000
15.7773	215.0000
15.7866	236.0000
15.7958	224.0000
15.8050	224.0000
15.8142	211.0000
15.8234	237.0000
15.8327	214.0000
15.8419	228.0000
15.8511	250.0000
15.8603	225.0000
15.8696	214.0000
15.8788	238.0000
15.8880	223.0000
15.8972	205.0000
15.9065	230.0000
15.9157	217.0000
15.9249	229.0000
15.9341	211.0000
15.9433	214.0000
15.9526	213.0000
15.9618	235.0000
15.9710	238.0000
15.9802	204.0000
15.9895	242.0000
15.9987	217.0000
16.0079	239.0000
16.0171	221.0000
16.0263	212.0000
16.0356	215.0000
16.0448	225.0000
16.0540	222.0000
16.0632	223.0000
16.0725	241.0000
16.0817	206.0000
16.0909	211.0000
16.1001	231.0000
16.1094	221.0000
16.1186	227.0000
16.1278	223.0000
16.1370	250.0000
16.1462	216.0000
16.1555	233.0000
16.1647	202.0000
16.1739	212.0000
16.1831	221.0000
16.1924	198.0000
16.2016	211.0000
16.2108	217.0000
16.2200	213.0000
16.2292	218.0000
16.2385	210.0000
16.2477	244.0000
16.2569	208.0000
16.2661	226.0000
16.2754	200.0000
16.2846	209.0000
16.2938	199.0000
16.3030	232.0000
16.3122	231.0000
16.3215	206.0000
16.3307	218.0000
16.3399	193.0000
16.3491	219.0000
16.3584	225.0000
16.3676	225.0000
16.3768	230.0000
16.3860	227.0000
16.3953	209.0000
16.4045	212.0000
16.4137	176.0000
16.4229	197.0000
16.4321	207.0000
16.4414	237.0000
16.4506	220.0000
16.4598	199.0000
16.4690	203.0000
16.4783	239.0000
16.4875	218.0000
16.4967	240.0000
16.5059	211.0000
16.5151	211.0000
16.5244	208.0000
16.5336	205.0000
16.5428	207.0000
16.5520	197.0000
16.5613	201.0000
16.5705	191.0000
16.5797	204.0000
16.5889	204.0000
16.5982	223.0000
16.6074	188.0000
16.6166	213.0000
16.6258	216.0000
16.6350	208.0000
16.6443	212.0000
16.6535	194.0000
16.6627	259.0000
16.6719	185.0000
16.6812	207.0000
16.6904	182.0000
16.6996	212.0000
16.7088	206.0000
16.7180	222.0000
16.7273	195.0000
16.7365	188.0000
16.7457	224.0000
16.7549	212.0000
16.7642	208.0000
16.7734	225.0000
16.7826	210.0000
16.7918	191.0000
16.8011	208.0000
16.8103	188.0000
16.8195	172.0000
16.8287	192.0000
16.8379	179.0000
16.8472	215.0000
16.8564	181.0000
16.8656	157.0000
16.8748	225.0000
16.8841	199.0000
16.8933	200.0000
16.9025	227.0000
16.9117	189.0000
16.9209	214.0000
16.9302	225.0000
16.9394	193.0000
16.9486	215.0000
16.9578	211.0000
16.9671	190.0000
16.9763	193.0000
16.9855	193.0000
16.9947	187.0000
17.0039	196.0000
17.0132	182.0000
17.0224	205.0000
17.0316	167.0000
17.0408	204.0000
17.0501	194.0000
17.0593	212.0000
17.0685	189.0000
17.0777	198.0000
17.0870	173.0000
17.0962	181.0000
17.1054	200.0000
17.1146	185.0000
17.1238	183.0000
17.1331	190.0000
17.1423	209.0000
17.1515	189.0000
17.1607	184.0000
17.1700	192.0000
17.1792	179.0000
17.1884	190.0000
17.1976	181.0000
17.2068	167.0000
17.2161	184.0000
17.2253	187.0000
17.2345	210.0000
17.2437	187.0000
17.2530	184.0000
17.2622	192.0000
17.2714	201.0000
17.2806	190.0000
17.2899	191.0000
17.2991	176.0000
17.3083	180.0000
17.3175	194.0000
17.3267	164.0000
17.3360	180.0000
17.3452	179.0000
17.3544	178.0000
17.3636	186.0000
17.3729	174.0000
17.3821	191.0000
17.3913	187.0000
17.4005	166.0000
17.4097	196.0000
17.4190	178.0000
17.4282	191.0000
17.4374	184.0000
17.4466	199.0000
17.4559	148.0000
17.4651	180.0000
17.4743	166.0000
17.4835	155.0000
17.4927	179.0000
17.5020	164.0000
17.5112	187.0000
17.5204	181.0000
17.5296	191.0000
17.5389	196.0000
17.5481	162.0000
17.5573	182.0000
17.5665	212.0000
17.5758	181.0000
17.5850	171.0000
17.5942	187.0000
17.6034	172.0000
17.6126	171.0000
17.6219	177.0000
17.6311	176.0000
17.6403	169.0000
17.6495	152.0000
17.6588	185.0000
17.6680	172.0000
17.6772	191.0000
17.6864	164.0000
17.6956	172.0000
17.7049	176.0000
17.7141	173.0000
17.7233	178.0000
17.7325	153.0000
17.7418	165.0000
17.7510	159.0000
17.7602	184.0000
17.7694	173.0000
17.7787	176.0000
17.7879	176.0000
17.7971	175.0000
17.8063	147.0000
17.8155	186.0000
17.8248	193.0000
17.8340	181.0000
17.8432	182.0000
17.8524	185.0000
17.8617	170.0000
17.8709	176.0000
17.8801	186.0000
17.8893	175.0000
17.8985	173.0000
17.9078	168.0000
17.9170	192.0000
17.9262	174.0000
17.9354	181.0000
17.9447	166.0000
17.9539	167.0000
17.9631	158.0000
17.9723	175.0000
17.9816	177.0000
17.9908	155.0000
18.0000	146.0000
18.0092	188.0000
18.0184	168.0000
18.0277	159.0000
18.0369	151.0000
18.0461	161.0000
18.0553	171.0000
18.0646	178.0000
18.0738	164.0000
18.0830	173.0000
18.0922	165.0000
18.1014	152.0000
18.1107	159.0000
18.1199	151.0000
18.1291	188.0000
18.1383	159.0000
18.1476	197.0000
18.1568	167.0000
18.1660	161.0000
18.1752	158.0000
18.1844	179.0000
18.1937	173.0000
18.2029	174.0000
18.2121	171.0000
18.2213	146.0000
18.2306	182.0000
18.2398	166.0000
18.2490	148.0000
18.2582	198.0000
18.2675	164.0000
18.2767	165.0000
18.2859	139.0000
18.2951	170.0000
18.3043	175.0000
18.3136	152.0000
18.3228	151.0000
18.3320	145.0000
18.3412	193.0000
18.3505	157.0000
18.3597	178.0000
18.3689	182.0000
18.3781	161.0000
18.3873	168.0000
18.3966	182.0000
18.4058	172.0000
18.4150	175.0000
18.4242	150.0000
18.4335	147.0000
18.4427	148.0000
18.4519	178.0000
18.4611	180.0000
18.4704	158.0000
18.4796	159.0000
18.4888	152.0000
18.4980	189.0000
18.5072	159.0000
18.5165	166.0000
18.5257	144.0000
18.5349	155.0000
18.5441	158.0000
18.5534	165.0000
18.5626	162.0000
18.5718	156.0000
18.5810	180.0000
18.5902	190.0000
18.5995	140.0000
18.6087	184.0000
18.6179	171.0000
18.6271	153.0000
18.6364	151.0000
18.6456	166.0000
18.6548	155.0000
18.6640	182.0000
18.6732	170.0000
18.6825	169.0000
18.6917	165.0000
18.7009	165.0000
18.7101	156.0000
18.7194	167.0000
18.7286	158.0000
18.7378	190.0000
18.7470	150.0000
18.7563	150.0000
18.7655	158.0000
18.7747	160.0000
18.7839	173.0000
18.7931	159.0000
18.8024	158.0000
18.8116	153.0000
18.8208	162.0000
18.8300	169.0000
18.8393	166.0000
18.8485	181.0000
18.8577	153.0000
18.8669	154.0000
18.8761	153.0000
18.8854	172.0000
18.8946	161.0000
18.9038	153.0000
18.9130	144.0000
18.9223	176.0000
18.9315	180.0000
18.9407	183.0000
18.9499	155.0000
18.9592	182.0000
18.9684	165.0000
18.9776	156.0000
18.9868	166.0000
18.9960	157.0000
19.0053	166.0000
19.0145	179.0000
19.0237	161.0000
19.0329	164.0000
19.0422	160.0000
19.0514	157.0000
19.0606	158.0000
19.0698	163.0000
19.0790	156.0000
19.0883	184.0000
19.0975	198.0000
19.1067	159.0000
19.1159	176.0000
19.1252	165.0000
19.1344	151.0000
19.1436	137.0000
19.1528	174.0000
19.1621	165.0000
19.1713	163.0000
19.1805	150.0000
19.1897	159.0000
19.1989	144.0000
19.2082	200.0000
19.2174	175.0000
19.2266	157.0000
19.2358	159.0000
19.2451	173.0000
19.2543	158.0000
19.2635	156.0000
19.2727	178.0000
19.2819	151.0000
19.2912	164.0000
19.3004	144.0000
19.3096	146.0000
19.3188	164.0000
19.3281	164.0000
19.3373	178.0000
19.3465	180.0000
19.3557	157.0000
19.3649	185.0000
19.3742	162.0000
19.3834	174.0000
19.3926	174.0000
19.4018	164.0000
19.4111	146.0000
19.4203	180.0000
19.4295	157.0000
19.4387	162.0000
19.4480	185.0000
19.4572	175.0000
19.4664	163.0000
19.4756	167.0000
19.4848	167.0000
19.4941	173.0000
19.5033	169.0000
19.5125	189.0000
19.5217	174.0000
19.5310	181.0000
19.5402	180.0000
19.5494	153.0000
19.5586	155.0000
19.5678	164.0000
19.5771	171.0000
19.5863	165.0000
19.5955	163.0000
19.6047	180.0000
19.6140	187.0000
19.6232	160.0000
19.6324	179.0000
19.6416	186.0000
19.6509	173.0000
19.6601	191.0000
19.6693	140.0000
19.6785	194.0000
19.6877	144.0000
19.6970	189.0000
19.7062	158.0000
19.7154	166.0000
19.7246	161.0000
19.7339	182.0000
19.7431	161.0000
19.7523	155.0000
19.7615	177.0000
19.7707	153.0000
19.7800	171.0000
19.7892	152.0000
19.7984	163.0000
19.8076	180.0000
19.8169	154.0000
19.8261	170.0000
19.8353	177.0000
19.8445	166.0000
19.8537	183.0000
19.8630	166.0000
19.8722	174.0000
19.8814	180.0000
19.8906	174.0000
19.8999	142.0000
19.9091	157.0000
19.9183	175.0000
19.9275	158.0000
19.9368	176.0000
19.9460	157.0000
19.9552	176.0000
19.9644	168.0000
19.9736	177.0000
19.9829	166.0000
19.9921	177.0000
20.0013	190.0000
20.0105	195.0000
20.0198	183.0000
20.0290	188.0000
20.0382	176.0000
20.0474	179.0000
20.0566	171.0000
20.0659	164.0000
20.0751	163.0000
20.0843	189.0000
20.0935	192.0000
20.1028	165.0000
20.1120	152.0000
20.1212	170.0000
20.1304	159.0000
20.1397	163.0000
20.1489	174.0000
20.1581	154.0000
20.1673	188.0000
20.1765	153.0000
20.1858	170.0000
20.1950	176.0000
20.2042	186.0000
20.2134	162.0000
20.2227	206.0000
20.2319	168.0000
20.2411	182.0000
20.2503	173.0000
20.2595	156.0000
20.2688	164.0000
20.2780	168.0000
20.2872	165.0000
20.2964	177.0000
20.3057	162.0000
20.3149	182.0000
20.3241	168.0000
20.3333	171.0000
20.3426	179.0000
20.3518	167.0000
20.3610	155.0000
20.3702	172.0000
20.3794	191.0000
20.3887	184.0000
20.3979	159.0000
20.4071	174.0000
20.4163	148.0000
20.4256	177.0000
20.4348	163.0000
20.4440	169.0000
20.4532	168.0000
20.4624	167.0000
20.4717	168.0000
20.4809	159.0000
20.4901	185.0000
20.4993	163.0000
20.5086	169.0000
20.5178	183.0000
20.5270	163.0000
20.5362	151.0000
20.5454	156.0000
20.5547	166.0000
20.5639	171.0000
20.5731	155.0000
20.5823	185.0000
20.5916	172.0000
20.6008	174.0000
20.6100	172.0000
20.6192	162.0000
20.6285	151.0000
20.6377	199.0000
20.6469	185.0000
20.6561	217.0000
20.6653	165.0000
20.6746	154.0000
20.6838	165.0000
20.6930	179.0000
20.7022	196.0000
20.7115	177.0000
20.7207	172.0000
20.7299	175.0000
20.7391	174.0000
20.7483	177.0000
20.7576	168.0000
20.7668	177.0000
20.7760	209.0000
20.7852	150.0000
20.7945	197.0000
20.8037	192.0000
20.8129	184.0000
20.8221	181.0000
20.8314	164.0000
20.8406	171.0000
20.8498	168.0000
20.8590	190.0000
20.8682	180.0000
20.8775	186.0000
20.8867	171.0000
20.8959	171.0000
20.9051	183.0000
20.9144	175.0000
20.9236	183.0000
20.9328	177.0000
20.9420	198.0000
20.9512	159.0000
20.9605	190.0000
20.9697	165.0000
20.9789	185.0000
20.9881	184.0000
20.9974	183.0000
21.0066	179.0000
21.0158	196.0000
21.0250	183.0000
21.0342	182.0000
21.0435	205.0000
21.0527	178.0000
21.0619	172.0000
21.0711	174.0000
21.0804	177.0000
21.0896	166.0000
21.0988	193.0000
21.1080	199.0000
21.1173	184.0000
21.1265	183.0000
21.1357	187.0000
21.1449	193.0000
21.1541	189.0000
21.1634	200.0000
21.1726	217.0000
21.1818	194.0000
21.1910	247.0000
21.2003	224.0000
21.2095	221.0000
21.2187	245.0000
21.2279	254.0000
21.2371	258.0000
21.2464	276.0000
21.2556	391.0000
21.2648	629.0000
21.2740	951.0000
21.2833	1317.0000
21.2925	1226.0000
21.3017	947.0000
21.3109	697.0000
21.3202	484.0000
21.3294	318.0000
21.3386	258.0000
21.3478	238.0000
21.3570	240.0000
21.3663	234.0000
21.3755	258.0000
21.3847	358.0000
21.3939	455.0000
21.4032	619.0000
21.4124	751.0000
21.4216	674.0000
21.4308	550.0000
21.4400	378.0000
21.4493	264.0000
21.4585	243.0000
21.4677	212.0000
21.4769	188.0000
21.4862	183.0000
21.4954	169.0000
21.5046	161.0000
21.5138	207.0000
21.5231	172.0000
21.5323	161.0000
21.5415	167.0000
21.5507	192.0000
21.5599	195.0000
21.5692	184.0000
21.5784	198.0000
21.5876	185.0000
21.5968	187.0000
21.6061	162.0000
21.6153	171.0000
21.6245	169.0000
21.6337	161.0000
21.6429	177.0000
21.6522	175.0000
21.6614	168.0000
21.6706	169.0000
21.6798	172.0000
21.6891	193.0000
21.6983	182.0000
21.7075	188.0000
21.7167	163.0000
21.7259	161.0000
21.7352	175.0000
21.7444	172.0000
21.7536	181.0000
21.7628	165.0000
21.7721	157.0000
21.7813	188.0000
21.7905	176.0000
21.7997	175.0000
21.8090	161.0000
21.8182	165.0000
21.8274	184.0000
21.8366	174.0000
21.8458	160.0000
21.8551	150.0000
21.8643	164.0000
21.8735	162.0000
21.8827	170.0000
21.8920	170.0000
21.9012	178.0000
21.9104	192.0000
21.9196	197.0000
21.9288	181.0000
21.9381	162.0000
21.9473	168.0000
21.9565	155.0000
21.9657	169.0000
21.9750	179.0000
21.9842	165.0000
21.9934	156.0000
22.0026	173.0000
22.0119	145.0000
22.0211	172.0000
22.0303	155.0000
22.0395	169.0000
22.0487	169.0000
22.0580	164.0000
22.0672	166.0000
22.0764	182.0000
22.0856	163.0000
22.0949	153.0000
22.1041	178.0000
22.1133	156.0000
22.1225	174.0000
22.1317	163.0000
22.1410	171.0000
22.1502	181.0000
22.1594	172.0000
22.1686	167.0000
22.1779	161.0000
22.1871	168.0000
22.1963	191.0000
22.2055	184.0000
22.2147	180.0000
22.2240	166.0000
22.2332	152.0000
22.2424	169.0000
22.2516	207.0000
22.2609	179.0000
22.2701	172.0000
22.2793	196.0000
22.2885	149.0000
22.2978	158.0000
22.3070	170.0000
22.3162	164.0000
22.3254	185.0000
22.3346	176.0000
22.3439	181.0000
22.3531	175.0000
22.3623	161.0000
22.3715	176.0000
22.3808	172.0000
22.3900	137.0000
22.3992	171.0000
22.4084	173.0000
22.4176	149.0000
22.4269	150.0000
22.4361	164.0000
22.4453	166.0000
22.4545	148.0000
22.4638	178.0000
22.4730	173.0000
22.4822	137.0000
22.4914	171.0000
22.5007	149.0000
22.5099	182.0000
22.5191	174.0000
22.5283	148.0000
22.5375	148.0000
22.5468	180.0000
22.5560	177.0000
22.5652	147.0000
22.5744	171.0000
22.5837	159.0000
22.5929	168.0000
22.6021	176.0000
22.6113	163.0000
22.6205	160.0000
22.6298	175.0000
22.6390	159.0000
22.6482	179.0000
22.6574	162.0000
22.6667	171.0000
22.6759	157.0000
22.6851	153.0000
22.6943	154.0000
22.7036	173.0000
22.7128	147.0000
22.7220	150.0000
22.7312	178.0000
22.7404	155.0000
22.7497	168.0000
22.7589	184.0000
22.7681	166.0000
22.7773	150.0000
22.7866	166.0000
22.7958	179.0000
22.8050	148.0000
22.8142	175.0000
22.8234	166.0000
22.8327	156.0000
22.8419	154.0000
22.8511	161.0000
22.8603	137.0000
22.8696	161.0000
22.8788	142.0000
22.8880	150.0000
22.8972	162.0000
22.9064	159.0000
22.9157	158.0000
22.9249	160.0000
22.9341	167.0000
22.9433	167.0000
22.9526	164.0000
22.9618	169.0000
22.9710	152.0000
22.9802	153.0000
22.9895	161.0000
22.9987	178.0000
23.0079	167.0000
23.0171	139.0000
23.0263	177.0000
23.0356	165.0000
23.0448	173.0000
23.0540	158.0000
23.0632	155.0000
23.0725	159.0000
23.0817	156.0000
23.0909	166.0000
23.1001	160.0000
23.1093	147.0000
23.1186	178.0000
23.1278	145.0000
23.1370	166.0000
23.1462	152.0000
23.1555	163.0000
23.1647	158.0000
23.1739	154.0000
23.1831	172.0000
23.1924	162.0000
23.2016	183.0000
23.2108	169.0000
23.2200	162.0000
23.2292	162.0000
23.2385	177.0000
23.2477	161.0000
23.2569	155.0000
23.2661	167.0000
23.2754	168.0000
23.2846	174.0000
23.2938	160.0000
23.3030	149.0000
23.3122	177.0000
23.3215	167.0000
23.3307	170.0000
23.3399	147.0000
23.3491	167.0000
23.3584	168.0000
23.3676	186.0000
23.3768	150.0000
23.3860	162.0000
23.3952	166.0000
23.4045	172.0000
23.4137	151.0000
23.4229	148.0000
23.4321	162.0000
23.4414	153.0000
23.4506	161.0000
23.4598	172.0000
23.4690	160.0000
23.4783	154.0000
23.4875	143.0000
23.4967	152.0000
23.5059	155.0000
23.5151	170.0000
23.5244	158.0000
23.5336	159.0000
23.5428	157.0000
23.5520	156.0000
23.5613	151.0000
23.5705	154.0000
23.5797	165.0000
23.5889	158.0000
23.5981	174.0000
23.6074	174.0000
23.6166	181.0000
23.6258	171.0000
23.6350	165.0000
23.6443	171.0000
23.6535	164.0000
23.6627	160.0000
23.6719	170.0000
23.6812	153.0000
23.6904	167.0000
23.6996	158.0000
23.7088	173.0000
23.7180	147.0000
23.7273	141.0000
23.7365	180.0000
23.7457	162.0000
23.7549	157.0000
23.7642	165.0000
23.7734	168.0000
23.7826	169.0000
23.7918	164.0000
23.8010	146.0000
23.8103	162.0000
23.8195	179.0000
23.8287	148.0000
23.8379	170.0000
23.8472	163.0000
23.8564	174.0000
23.8656	192.0000
23.8748	133.0000
23.8841	146.0000
23.8933	150.0000
23.9025	148.0000
23.9117	168.0000
23.9209	156.0000
23.9302	160.0000
23.9394	161.0000
23.9486	147.0000
23.9578	159.0000
23.9671	141.0000
23.9763	159.0000
23.9855	166.0000
23.9947	147.0000
24.0039	160.0000
24.0132	176.0000
24.0224	167.0000
24.0316	174.0000
24.0408	166.0000
24.0501	153.0000
24.0593	168.0000
24.0685	171.0000
24.0777	183.0000
24.0869	170.0000
24.0962	173.0000
24.1054	148.0000
24.1146	166.0000
24.1238	164.0000
24.1331	152.0000
24.1423	167.0000
24.1515	158.0000
24.1607	177.0000
24.1700	150.0000
24.1792	152.0000
24.1884	170.0000
24.1976	157.0000
24.2068	153.0000
24.2161	152.0000
24.2253	167.0000
24.2345	145.0000
24.2437	174.0000
24.2530	160.0000
24.2622	156.0000
24.2714	155.0000
24.2806	160.0000
24.2898	143.0000
24.2991	155.0000
24.3083	152.0000
24.3175	134.0000
24.3267	169.0000
24.3360	171.0000
24.3452	160.0000
24.3544	150.0000
24.3636	164.0000
24.3729	173.0000
24.3821	159.0000
24.3913	161.0000
24.4005	175.0000
24.4097	140.0000
24.4190	140.0000
24.4282	151.0000
24.4374	160.0000
24.4466	186.0000
24.4559	162.0000
24.4651	172.0000
24.4743	156.0000
24.4835	187.0000
24.4927	160.0000
24.5020	140.0000
24.5112	147.0000
24.5204	188.0000
24.5296	143.0000
24.5389	162.0000
24.5481	176.0000
24.5573	179.0000
24.5665	150.0000
24.5757	163.0000
24.5850	173.0000
24.5942	172.0000
24.6034	163.0000
24.6126	162.0000
24.6219	176.0000
24.6311	167.0000
24.6403	185.0000
24.6495	180.0000
24.6588	147.0000
24.6680	145.0000
24.6772	190.0000
24.6864	188.0000
24.6956	164.0000
24.7049	166.0000
24.7141	162.0000
24.7233	170.0000
24.7325	162.0000
24.7418	134.0000
24.7510	191.0000
24.7602	170.0000
24.7694	156.0000
24.7786	167.0000
24.7879	180.0000
24.7971	174.0000
24.8063	139.0000
24.8155	170.0000
24.8248	164.0000
24.8340	159.0000
24.8432	161.0000
24.8524	182.0000
24.8617	172.0000
24.8709	159.0000
24.8801	146.0000
24.8893	181.0000
24.8985	166.0000
24.9078	184.0000
24.9170	195.0000
24.9262	153.0000
24.9354	154.0000
24.9447	184.0000
24.9539	180.0000
24.9631	186.0000
24.9723	201.0000
24.9815	214.0000
24.9908	252.0000
25.0000	292.0000
25.0092	337.0000
25.0184	269.0000
25.0277	246.0000
25.0369	207.0000
25.0461	200.0000
25.0553	218.0000
25.0646	154.0000
25.0738	190.0000
25.0830	172.0000
25.0922	167.0000
25.1014	167.0000
25.1107	183.0000
25.1199	186.0000
25.1291	191.0000
25.1383	228.0000
25.1476	258.0000
25.1568	255.0000
25.1660	219.0000
25.1752	237.0000
25.1844	220.0000
25.1937	209.0000
25.2029	167.0000
25.2121	190.0000
25.2213	172.0000
25.2306	171.0000
25.2398	152.0000
25.2490	163.0000
25.2582	153.0000
25.2674	160.0000
25.2767	169.0000
25.2859	172.0000
25.2951	174.0000
25.3043	159.0000
25.3136	166.0000
25.3228	166.0000
25.3320	187.0000
25.3412	182.0000
25.3505	179.0000
25.3597	160.0000
25.3689	171.0000
25.3781	158.0000
25.3873	160.0000
25.3966	180.0000
25.4058	170.0000
25.4150	180.0000
25.4242	180.0000
25.4335	186.0000
25.4427	184.0000
25.4519	170.0000
25.4611	182.0000
25.4703	169.0000
25.4796	154.0000
25.4888	180.0000
25.4980	175.0000
25.5072	151.0000
25.5165	178.0000
25.5257	144.0000
25.5349	158.0000
25.5441	161.0000
25.5534	185.0000
25.5626	173.0000
25.5718	184.0000
25.5810	178.0000
25.5902	171.0000
25.5995	153.0000
25.6087	169.0000
25.6179	180.0000
25.6271	155.0000
25.6364	164.0000
25.6456	157.0000
25.6548	177.0000
25.6640	170.0000
25.6732	168.0000
25.6825	159.0000
25.6917	164.0000
25.7009	187.0000
25.7101	165.0000
25.7194	162.0000
25.7286	178.0000
25.7378	170.0000
25.7470	160.0000
25.7562	186.0000
25.7655	150.0000
25.7747	153.0000
25.7839	167.0000
25.7931	163.0000
25.8024	157.0000
25.8116	159.0000
25.8208	189.0000
25.8300	155.0000
25.8393	139.0000
25.8485	180.0000
25.8577	183.0000
25.8669	164.0000
25.8761	183.0000
25.8854	178.0000
25.8946	154.0000
25.9038	168.0000
25.9130	161.0000
25.9223	157.0000
25.9315	166.0000
25.9407	163.0000
25.9499	183.0000
25.9591	174.0000
25.9684	184.0000
25.9776	163.0000
25.9868	172.0000
25.9960	153.0000
26.0053	170.0000
26.0145	169.0000
26.0237	196.0000
26.0329	183.0000
26.0422	168.0000
26.0514	182.0000
26.0606	155.0000
26.0698	191.0000
26.0790	153.0000
26.0883	161.0000
26.0975	198.0000
26.1067	179.0000
26.1159	180.0000
26.1252	176.0000
26.1344	188.0000
26.1436	172.0000
26.1528	176.0000
26.1620	164.0000
26.1713	168.0000
26.1805	172.0000
26.1897	157.0000
26.1989	185.0000
26.2082	170.0000
26.2174	163.0000
26.2266	164.0000
26.2358	171.0000
26.2451	168.0000
26.2543	154.0000
26.2635	186.0000
26.2727	180.0000
26.2819	181.0000
26.2912	183.0000
26.3004	170.0000
26.3096	155.0000
26.3188	157.0000
26.3281	152.0000
26.3373	175.0000
26.3465	202.0000
26.3557	144.0000
26.3649	194.0000
26.3742	175.0000
26.3834	167.0000
26.3926	222.0000
26.4018	184.0000
26.4111	187.0000
26.4203	182.0000
26.4295	178.0000
26.4387	186.0000
26.4479	172.0000
26.4572	196.0000
26.4664	190.0000
26.4756	161.0000
26.4848	178.0000
26.4941	176.0000
26.5033	168.0000
26.5125	144.0000
26.5217	211.0000
26.5310	186.0000
26.5402	163.0000
26.5494	168.0000
26.5586	159.0000
26.5678	172.0000
26.5771	190.0000
26.5863	169.0000
26.5955	170.0000
26.6047	191.0000
26.6140	175.0000
26.6232	187.0000
26.6324	165.0000
26.6416	182.0000
26.6508	186.0000
26.6601	186.0000
26.6693	182.0000
26.6785	172.0000
26.6877	149.0000
26.6970	167.0000
26.7062	175.0000
26.7154	174.0000
26.7246	191.0000
26.7339	175.0000
26.7431	169.0000
26.7523	186.0000
26.7615	189.0000
26.7707	166.0000
26.7800	183.0000
26.7892	198.0000
26.7984	175.0000
26.8076	188.0000
26.8169	193.0000
26.8261	175.0000
26.8353	160.0000
26.8445	162.0000
26.8537	183.0000
26.8630	198.0000
26.8722	180.0000
26.8814	173.0000
26.8906	201.0000
26.8999	174.0000
26.9091	193.0000
26.9183	180.0000
26.9275	167.0000
26.9367	182.0000
26.9460	170.0000
26.9552	169.0000
26.9644	195.0000
26.9736	180.0000
26.9829	206.0000
26.9921	180.0000
27.0013	192.0000
27.0105	174.0000
27.0198	193.0000
27.0290	200.0000
27.0382	184.0000
27.0474	188.0000
27.0566	160.0000
27.0659	177.0000
27.0751	190.0000
27.0843	197.0000
27.0935	178.0000
27.1028	167.0000
27.1120	194.0000
27.1212	188.0000
27.1304	174.0000
27.1396	171.0000
27.1489	196.0000
27.1581	173.0000
27.1673	183.0000
27.1765	205.0000
27.1858	173.0000
27.1950	177.0000
27.2042	209.0000
27.2134	199.0000
27.2227	215.0000
27.2319	164.0000
27.2411	199.0000
27.2503	199.0000
27.2595	182.0000
27.2688	172.0000
27.2780	163.0000
27.2872	181.0000
27.2964	191.0000
27.3057	171.0000
27.3149	192.0000
27.3241	180.0000
27.3333	195.0000
27.3425	167.0000
27.3518	199.0000
27.3610	200.0000
27.3702	203.0000
27.3794	171.0000
27.3887	167.0000
27.3979	179.0000
27.4071	183.0000
27.4163	189.0000
27.4256	186.0000
27.4348	167.0000
27.4440	170.0000
27.4532	207.0000
27.4624	166.0000
27.4717	176.0000
27.4809	182.0000
27.4901	176.0000
27.4993	180.0000
27.5086	179.0000
27.5178	166.0000
27.5270	179.0000
27.5362	183.0000
27.5454	185.0000
27.5547	194.0000
27.5639	183.0000
27.5731	177.0000
27.5823	197.0000
27.5916	179.0000
27.6008	172.0000
27.6100	178.0000
27.6192	205.0000
27.6284	191.0000
27.6377	205.0000
27.6469	176.0000
27.6561	184.0000
27.6653	166.0000
27.6746	173.0000
27.6838	183.0000
27.6930	180.0000
27.7022	192.0000
27.7115	180.0000
27.7207	182.0000
27.7299	180.0000
27.7391	178.0000
27.7483	185.0000
27.7576	199.0000
27.7668	178.0000
27.7760	163.0000
27.7852	181.0000
27.7945	175.0000
27.8037	151.0000
27.8129	192.0000
27.8221	181.0000
27.8313	173.0000
27.8406	186.0000
27.8498	185.0000
27.8590	195.0000
27.8682	170.0000
27.8775	170.0000
27.8867	181.0000
27.8959	189.0000
27.9051	186.0000
27.9144	187.0000
27.9236	176.0000
27.9328	183.0000
27.9420	189.0000
27.9512	184.0000
27.9605	172.0000
27.9697	223.0000
27.9789	176.0000
27.9881	195.0000
27.9974	193.0000
28.0066	149.0000
28.0158	177.0000
28.0250	176.0000
28.0342	211.0000
28.0435	186.0000
28.0527	204.0000
28.0619	167.0000
28.0711	181.0000
28.0804	198.0000
28.0896	199.0000
28.0988	193.0000
28.1080	188.0000
28.1172	202.0000
28.1265	161.0000
28.1357	163.0000
28.1449	182.0000
28.1541	196.0000
28.1634	184.0000
28.1726	181.0000
28.1818	182.0000
28.1910	188.0000
28.2003	181.0000
28.2095	213.0000
28.2187	173.0000
28.2279	182.0000
28.2371	194.0000
28.2464	185.0000
28.2556	218.0000
28.2648	174.0000
28.2740	161.0000
28.2833	180.0000
28.2925	170.0000
28.3017	175.0000
28.3109	202.0000
28.3201	188.0000
28.3294	177.0000
28.3386	168.0000
28.3478	185.0000
28.3570	199.0000
28.3663	190.0000
28.3755	167.0000
28.3847	209.0000
28.3939	206.0000
28.4032	176.0000
28.4124	179.0000
28.4216	184.0000
28.4308	173.0000
28.4400	181.0000
28.4493	186.0000
28.4585	192.0000
28.4677	207.0000
28.4769	188.0000
28.4862	205.0000
28.4954	163.0000
28.5046	201.0000
28.5138	179.0000
28.5230	157.0000
28.5323	178.0000
28.5415	210.0000
28.5507	178.0000
28.5599	208.0000
28.5692	174.0000
28.5784	185.0000
28.5876	199.0000
28.5968	202.0000
28.6061	203.0000
28.6153	205.0000
28.6245	175.0000
28.6337	187.0000
28.6429	200.0000
28.6522	201.0000
28.6614	180.0000
28.6706	165.0000
28.6798	205.0000
28.6891	177.0000
28.6983	181.0000
28.7075	190.0000
28.7167	173.0000
28.7259	167.0000
28.7352	165.0000
28.7444	184.0000
28.7536	187.0000
28.7628	187.0000
28.7721	188.0000
28.7813	183.0000
28.7905	187.0000
28.7997	179.0000
28.8089	200.0000
28.8182	152.0000
28.8274	190.0000
28.8366	178.0000
28.8458	181.0000
28.8551	177.0000
28.8643	188.0000
28.8735	170.0000
28.8827	195.0000
28.8920	197.0000
28.9012	158.0000
28.9104	179.0000
28.9196	195.0000
28.9288	195.0000
28.9381	206.0000
28.9473	210.0000
28.9565	209.0000
28.9657	207.0000
28.9750	178.0000
28.9842	200.0000
28.9934	201.0000
29.0026	182.0000
29.0118	206.0000
29.0211	179.0000
29.0303	200.0000
29.0395	187.0000
29.0487	183.0000
29.0580	185.0000
29.0672	211.0000
29.0764	196.0000
29.0856	182.0000
29.0949	174.0000
29.1041	184.0000
29.1133	184.0000
29.1225	202.0000
29.1317	210.0000
29.1410	185.0000
29.1502	189.0000
29.1594	183.0000
29.1686	161.0000
29.1779	187.0000
29.1871	203.0000
29.1963	199.0000
29.2055	199.0000
29.2147	180.0000
29.2240	193.0000
29.2332	180.0000
29.2424	182.0000
29.2516	178.0000
29.2609	188.0000
29.2701	203.0000
29.2793	188.0000
29.2885	182.0000
29.2977	178.0000
29.3070	188.0000
29.3162	191.0000
29.3254	176.0000
29.3346	161.0000
29.3439	188.0000
29.3531	173.0000
29.3623	195.0000
29.3715	173.0000
29.3808	199.0000
29.3900	187.0000
29.3992	194.0000
29.4084	207.0000
29.4176	193.0000
29.4269	191.0000
29.4361	183.0000
29.4453	182.0000
29.4545	196.0000
29.4638	170.0000
29.4730	189.0000
29.4822	205.0000
29.4914	222.0000
29.5006	201.0000
29.5099	188.0000
29.5191	193.0000
29.5283	191.0000
29.5375	198.0000
29.5468	199.0000
29.5560	203.0000
29.5652	173.0000
29.5744	201.0000
29.5837	209.0000
29.5929	172.0000
29.6021	187.0000
29.6113	179.0000
29.6205	182.0000
29.6298	217.0000
29.6390	199.0000
29.6482	185.0000
29.6574	199.0000
29.6667	199.0000
29.6759	212.0000
29.6851	202.0000
29.6943	204.0000
29.7035	184.0000
29.7128	188.0000
29.7220	194.0000
29.7312	165.0000
29.7404	168.0000
29.7497	210.0000
29.7589	180.0000
29.7681	208.0000
29.7773	204.0000
29.7866	187.0000
29.7958	172.0000
29.8050	183.0000
29.8142	199.0000
29.8234	180.0000
29.8327	200.0000
29.8419	178.0000
29.8511	205.0000
29.8603	183.0000
29.8696	191.0000
29.8788	171.0000
29.8880	186.0000
29.8972	190.0000
29.9064	184.0000
29.9157	180.0000
29.9249	190.0000
29.9341	207.0000
29.9433	191.0000
29.9526	197.0000
29.9618	186.0000
29.9710	200.0000
29.9802	193.0000
29.9894	172.0000
29.9987	205.0000
30.0079	209.0000
30.0171	207.0000
30.0263	186.0000
30.0356	198.0000
30.0448	182.0000
30.0540	204.0000
30.0632	190.0000
30.0725	172.0000
30.0817	185.0000
30.0909	172.0000
30.1001	196.0000
30.1093	167.0000
30.1186	182.0000
30.1278	194.0000
30.1370	169.0000
30.1462	209.0000
30.1555	215.0000
30.1647	196.0000
30.1739	197.0000
30.1831	188.0000
30.1923	176.0000
30.2016	179.0000
30.2108	195.0000
30.2200	185.0000
30.2292	186.0000
30.2385	197.0000
30.2477	196.0000
30.2569	186.0000
30.2661	191.0000
30.2754	156.0000
30.2846	198.0000
30.2938	192.0000
30.3030	188.0000
30.3122	181.0000
30.3215	200.0000
30.3307	191.0000
30.3399	183.0000
30.3491	164.0000
30.3584	173.0000
30.3676	196.0000
30.3768	221.0000
30.3860	194.0000
30.3952	201.0000
30.4045	192.0000
30.4137	181.0000
30.4229	183.0000
30.4321	211.0000
30.4414	210.0000
30.4506	195.0000
30.4598	193.0000
30.4690	181.0000
30.4782	168.0000
30.4875	191.0000
30.4967	197.0000
30.5059	202.0000
30.5151	180.0000
30.5244	169.0000
30.5336	194.0000
30.5428	179.0000
30.5520	199.0000
30.5613	199.0000
30.5705	168.0000
30.5797	188.0000
30.5889	215.0000
30.5981	174.0000
30.6074	166.0000
30.6166	190.0000
30.6258	204.0000
30.6350	201.0000
30.6443	201.0000
30.6535	170.0000
30.6627	196.0000
30.6719	179.0000
30.6811	185.0000
30.6904	167.0000
30.6996	173.0000
30.7088	181.0000
30.7180	173.0000
30.7273	174.0000
30.7365	185.0000
30.7457	178.0000
30.7549	175.0000
30.7642	175.0000
30.7734	173.0000
30.7826	203.0000
30.7918	195.0000
30.8010	199.0000
30.8103	200.0000
30.8195	187.0000
30.8287	190.0000
30.8379	186.0000
30.8472	190.0000
30.8564	176.0000
30.8656	178.0000
30.8748	199.0000
30.8840	166.0000
30.8933	194.0000
30.9025	170.0000
30.9117	197.0000
30.9209	197.0000
30.9302	174.0000
30.9394	182.0000
30.9486	191.0000
30.9578	199.0000
30.9671	190.0000
30.9763	182.0000
30.9855	187.0000
30.9947	180.0000
31.0039	178.0000
31.0132	189.0000
31.0224	169.0000
31.0316	167.0000
31.0408	208.0000
31.0501	194.0000
31.0593	178.0000
31.0685	172.0000
31.0777	180.0000
31.0869	168.0000
31.0962	197.0000
31.1054	192.0000
31.1146	180.0000
31.1238	193.0000
31.1331	176.0000
31.1423	156.0000
31.1515	211.0000
31.1607	162.0000
31.1699	160.0000
31.1792	181.0000
31.1884	174.0000
31.1976	182.0000
31.2068	183.0000
31.2161	180.0000
31.2253	180.0000
31.2345	189.0000
31.2437	172.0000
31.2530	178.0000
31.2622	202.0000
31.2714	184.0000
31.2806	184.0000
31.2898	189.0000
31.2991	182.0000
31.3083	190.0000
31.3175	156.0000
31.3267	173.0000
31.3360	178.0000
31.3452	200.0000
31.3544	190.0000
31.3636	176.0000
31.3728	181.0000
31.3821	182.0000
31.3913	192.0000
31.4005	179.0000
31.4097	152.0000
31.4190	170.0000
31.4282	201.0000
31.4374	156.0000
31.4466	182.0000
31.4559	197.0000
31.4651	175.0000
31.4743	173.0000
31.4835	183.0000
31.4927	180.0000
31.5020	170.0000
31.5112	177.0000
31.5204	188.0000
31.5296	156.0000
31.5389	222.0000
31.5481	178.0000
31.5573	195.0000
31.5665	200.0000
31.5757	175.0000
31.5850	177.0000
31.5942	184.0000
31.6034	191.0000
31.6126	190.0000
31.6219	180.0000
31.6311	197.0000
31.6403	188.0000
31.6495	196.0000
31.6587	186.0000
31.6680	200.0000
31.6772	216.0000
31.6864	186.0000
31.6956	176.0000
31.7049	181.0000
31.7141	161.0000
31.7233	172.0000
31.7325	183.0000
31.7418	176.0000
31.7510	185.0000
31.7602	172.0000
31.7694	198.0000
31.7786	208.0000
31.7879	197.0000
31.7971	170.0000
31.8063	179.0000
31.8155	171.0000
31.8248	191.0000
31.8340	162.0000
31.8432	196.0000
31.8524	193.0000
31.8616	187.0000
31.8709	180.0000
31.8801	196.0000
31.8893	205.0000
31.8985	199.0000
31.9078	197.0000
31.9170	203.0000
31.9262	169.0000
31.9354	201.0000
31.9447	201.0000
31.9539	210.0000
31.9631	168.0000
31.9723	178.0000
31.9815	196.0000
31.9908	168.0000
32.0000	211.0000
32.0092	171.0000
32.0184	195.0000
32.0277	186.0000
32.0369	175.0000
32.0461	198.0000
32.0553	189.0000
32.0645	198.0000
32.0738	177.0000
32.0830	182.0000
32.0922	170.0000
32.1014	209.0000
32.1107	191.0000
32.1199	159.0000
32.1291	205.0000
32.1383	202.0000
32.1476	213.0000
32.1568	184.0000
32.1660	213.0000
32.1752	205.0000
32.1844	149.0000
32.1937	196.0000
32.2029	192.0000
32.2121	191.0000
32.2213	177.0000
32.2306	162.0000
32.2398	179.0000
32.2490	191.0000
32.2582	204.0000
32.2674	171.0000
32.2767	173.0000
32.2859	187.0000
32.2951	190.0000
32.3043	188.0000
32.3136	182.0000
32.3228	175.0000
32.3320	181.0000
32.3412	182.0000
32.3504	187.0000
32.3597	218.0000
32.3689	187.0000
32.3781	183.0000
32.3873	192.0000
32.3966	222.0000
32.4058	191.0000
32.4150	179.0000
32.4242	159.0000
32.4335	196.0000
32.4427	198.0000
32.4519	187.0000
32.4611	200.0000
32.4703	188.0000
32.4796	181.0000
32.4888	188.0000
32.4980	186.0000
32.5072	200.0000
32.5165	186.0000
32.5257	171.0000
32.5349	184.0000
32.5441	159.0000
32.5533	201.0000
32.5626	170.0000
32.5718	170.0000
32.5810	157.0000
32.5902	184.0000
32.5995	200.0000
32.6087	186.0000
32.6179	188.0000
32.6271	189.0000
32.6364	191.0000
32.6456	164.0000
32.6548	189.0000
32.6640	186.0000
32.6732	186.0000
32.6825	176.0000
32.6917	204.0000
32.7009	180.0000
32.7101	168.0000
32.7194	184.0000
32.7286	213.0000
32.7378	190.0000
32.7470	177.0000
32.7562	176.0000
32.7655	178.0000
32.7747	168.0000
32.7839	171.0000
32.7931	207.0000
32.8024	189.0000
32.8116	188.0000
32.8208	173.0000
32.8300	166.0000
32.8392	193.0000
32.8485	195.0000
32.8577	197.0000
32.8669	191.0000
32.8761	203.0000
32.8854	208.0000
32.8946	193.0000
32.9038	205.0000
32.9130	189.0000
32.9223	203.0000
32.9315	174.0000
32.9407	195.0000
32.9499	199.0000
32.9591	200.0000
32.9684	166.0000
32.9776	187.0000
32.9868	210.0000
32.9960	190.0000
33.0053	213.0000
33.0145	197.0000
33.0237	197.0000
33.0329	233.0000
33.0421	259.0000
33.0514	225.0000
33.0606	286.0000
33.0698	322.0000
33.0790	344.0000
33.0883	389.0000
33.0975	382.0000
33.1067	366.0000
33.1159	298.0000
33.1252	262.0000
33.1344	248.0000
33.1436	209.0000
33.1528	207.0000
33.1620	206.0000
33.1713	188.0000
33.1805	200.0000
33.1897	207.0000
33.1989	191.0000
33.2082	196.0000
33.2174	208.0000
33.2266	204.0000
33.2358	202.0000
33.2450	211.0000
33.2543	222.0000
33.2635	220.0000
33.2727	258.0000
33.2819	278.0000
33.2912	280.0000
33.3004	286.0000
33.3096	258.0000
33.3188	225.0000
33.3281	241.0000
33.3373	210.0000
33.3465	205.0000
33.3557	201.0000
33.3649	200.0000
33.3742	199.0000
33.3834	181.0000
33.3926	185.0000
33.4018	196.0000
33.4111	198.0000
33.4203	178.0000
33.4295	190.0000
33.4387	194.0000
33.4479	195.0000
33.4572	179.0000
33.4664	198.0000
33.4756	193.0000
33.4848	185.0000
33.4941	213.0000
33.5033	177.0000
33.5125	215.0000
33.5217	181.0000
33.5309	178.0000
33.5402	185.0000
33.5494	166.0000
33.5586	192.0000
33.5678	191.0000
33.5771	177.0000
33.5863	209.0000
33.5955	192.0000
33.6047	210.0000
33.6140	177.0000
33.6232	199.0000
33.6324	198.0000
33.6416	179.0000
33.6508	182.0000
33.6601	188.0000
33.6693	186.0000
33.6785	180.0000
33.6877	167.0000
33.6970	189.0000
33.7062	174.0000
33.7154	164.0000
33.7246	187.0000
33.7338	191.0000
33.7431	158.0000
33.7523	204.0000
33.7615	176.0000
33.7707	189.0000
33.7800	174.0000
33.7892	191.0000
33.7984	156.0000
33.8076	178.0000
33.8169	155.0000
33.8261	193.0000
33.8353	178.0000
33.8445	207.0000
33.8537	189.0000
33.8630	170.0000
33.8722	197.0000
33.8814	185.0000
33.8906	167.0000
33.8999	184.0000
33.9091	196.0000
33.9183	175.0000
33.9275	166.0000
33.9367	191.0000
33.9460	196.0000
33.9552	180.0000
33.9644	206.0000
33.9736	196.0000
33.9829	183.0000
33.9921	175.0000
34.0013	183.0000
34.0105	175.0000
34.0197	191.0000
34.0290	202.0000
34.0382	182.0000
34.0474	187.0000
34.0566	169.0000
34.0659	189.0000
34.0751	166.0000
34.0843	174.0000
34.0935	158.0000
34.1028	192.0000
34.1120	178.0000
34.1212	188.0000
34.1304	196.0000
34.1396	164.0000
34.1489	167.0000
34.1581	162.0000
34.1673	154.0000
34.1765	195.0000
34.1858	203.0000
34.1950	181.0000
34.2042	170.0000
34.2134	169.0000
34.2226	167.0000
34.2319	180.0000
34.2411	181.0000
34.2503	185.0000
34.2595	185.0000
34.2688	206.0000
34.2780	184.0000
34.2872	167.0000
34.2964	180.0000
34.3057	188.0000
34.3149	183.0000
34.3241	186.0000
34.3333	173.0000
34.3425	170.0000
34.3518	172.0000
34.3610	166.0000
34.3702	174.0000
34.3794	200.0000
34.3887	173.0000
34.3979	185.0000
34.4071	153.0000
34.4163	169.0000
34.4255	208.0000
34.4348	172.0000
34.4440	186.0000
34.4532	197.0000
34.4624	184.0000
34.4717	175.0000
34.4809	175.0000
34.4901	197.0000
34.4993	182.0000
34.5086	169.0000
34.5178	193.0000
34.5270	176.0000
34.5362	163.0000
34.5454	170.0000
34.5547	182.0000
34.5639	183.0000
34.5731	184.0000
34.5823	185.0000
34.5916	151.0000
34.6008	170.0000
34.6100	160.0000
34.6192	156.0000
34.6284	177.0000
34.6377	191.0000
34.6469	163.0000
34.6561	177.0000
34.6653	173.0000
34.6746	179.0000
34.6838	203.0000
34.6930	188.0000
34.7022	195.0000
34.7114	176.0000
34.7207	188.0000
34.7299	177.0000
34.7391	184.0000
34.7483	166.0000
34.7576	138.0000
34.7668	163.0000
34.7760	182.0000
34.7852	186.0000
34.7945	181.0000
34.8037	193.0000
34.8129	155.0000
34.8221	169.0000
34.8313	170.0000
34.8406	156.0000
34.8498	166.0000
34.8590	178.0000
34.8682	171.0000
34.8775	205.0000
34.8867	173.0000
34.8959	166.0000
34.9051	172.0000
34.9143	149.0000
34.9236	188.0000
34.9328	164.0000
34.9420	181.0000
34.9512	160.0000
34.9605	172.0000
34.9697	145.0000
34.9789	157.0000
34.9881	172.0000
34.9974	172.0000
35.0066	164.0000
35.0158	164.0000
35.0250	177.0000
35.0342	158.0000
35.0435	166.0000
35.0527	152.0000
35.0619	149.0000
35.0711	161.0000
35.0804	157.0000
35.0896	170.0000
35.0988	150.0000
35.1080	143.0000
35.1172	162.0000
35.1265	161.0000
35.1357	180.0000
35.1449	165.0000
35.1541	173.0000
35.1634	166.0000
35.1726	142.0000
35.1818	174.0000
35.1910	139.0000
35.2002	167.0000
35.2095	161.0000
35.2187	146.0000
35.2279	182.0000
35.2371	150.0000
35.2464	182.0000
35.2556	167.0000
35.2648	162.0000
35.2740	173.0000
35.2833	148.0000
35.2925	149.0000
35.3017	147.0000
35.3109	151.0000
35.3201	164.0000
35.3294	153.0000
35.3386	203.0000
35.3478	177.0000
35.3570	152.0000
35.3663	172.0000
35.3755	130.0000
35.3847	157.0000
35.3939	165.0000
35.4031	146.0000
35.4124	154.0000
35.4216	129.0000
35.4308	143.0000
35.4400	112.0000
35.4493	162.0000
35.4585	152.0000
35.4677	152.0000
35.4769	157.0000
35.4862	145.0000
35.4954	159.0000
35.5046	158.0000
35.5138	152.0000
35.5230	155.0000
35.5323	141.0000
35.5415	144.0000
35.5507	183.0000
35.5599	154.0000
35.5692	145.0000
35.5784	159.0000
35.5876	160.0000
35.5968	137.0000
35.6060	147.0000
35.6153	144.0000
35.6245	150.0000
35.6337	147.0000
35.6429	152.0000
35.6522	146.0000
35.6614	152.0000
35.6706	121.0000
35.6798	128.0000
35.6891	143.0000
35.6983	150.0000
35.7075	143.0000
35.7167	164.0000
35.7259	179.0000
35.7352	136.0000
35.7444	147.0000
35.7536	154.0000
35.7628	132.0000
35.7721	144.0000
35.7813	153.0000
35.7905	131.0000
35.7997	150.0000
35.8089	162.0000
35.8182	143.0000
35.8274	134.0000
35.8366	149.0000
35.8458	150.0000
35.8551	142.0000
35.8643	149.0000
35.8735	132.0000
35.8827	136.0000
35.8919	128.0000
35.9012	153.0000
35.9104	146.0000
35.9196	147.0000
35.9288	155.0000
35.9381	137.0000
35.9473	143.0000
35.9565	142.0000
35.9657	128.0000
35.9750	131.0000
35.9842	141.0000
35.9934	137.0000
36.0026	138.0000
36.0118	147.0000
36.0211	130.0000
36.0303	142.0000
36.0395	129.0000
36.0487	145.0000
36.0580	135.0000
36.0672	142.0000
36.0764	122.0000
36.0856	120.0000
36.0948	145.0000
36.1041	132.0000
36.1133	113.0000
36.1225	140.0000
36.1317	143.0000
36.1410	121.0000
36.1502	104.0000
36.1594	127.0000
36.1686	123.0000
36.1779	130.0000
36.1871	145.0000
36.1963	110.0000
36.2055	137.0000
36.2147	111.0000
36.2240	130.0000
36.2332	156.0000
36.2424	116.0000
36.2516	120.0000
36.2609	140.0000
36.2701	115.0000
36.2793	120.0000
36.2885	123.0000
36.2977	126.0000
36.3070	135.0000
36.3162	128.0000
36.3254	144.0000
36.3346	128.0000
36.3439	133.0000
36.3531	135.0000
36.3623	121.0000
36.3715	118.0000
36.3807	140.0000
36.3900	120.0000
36.3992	132.0000
36.4084	150.0000
36.4176	128.0000
36.4269	138.0000
36.4361	139.0000
36.4453	128.0000
36.4545	124.0000
36.4638	133.0000
36.4730	131.0000
36.4822	114.0000
36.4914	129.0000
36.5006	121.0000
36.5099	146.0000
36.5191	96.0000
36.5283	124.0000
36.5375	118.0000
36.5468	119.0000
36.5560	144.0000
36.5652	115.0000
36.5744	138.0000
36.5836	120.0000
36.5929	125.0000
36.6021	127.0000
36.6113	121.0000
36.6205	97.0000
36.6298	120.0000
36.6390	125.0000
36.6482	116.0000
36.6574	128.0000
36.6667	116.0000
36.6759	132.0000
36.6851	119.0000
36.6943	95.0000
36.7035	121.0000
36.7128	103.0000
36.7220	111.0000
36.7312	115.0000
36.7404	123.0000
36.7497	110.0000
36.7589	104.0000
36.7681	124.0000
36.7773	110.0000
36.7865	128.0000
36.7958	137.0000
36.8050	122.0000
36.8142	117.0000
36.8234	106.0000
36.8327	134.0000
36.8419	126.0000
36.8511	111.0000
36.8603	108.0000
36.8696	107.0000
36.8788	106.0000
36.8880	127.0000
36.8972	121.0000
36.9064	111.0000
36.9157	113.0000
36.9249	121.0000
36.9341	131.0000
36.9433	130.0000
36.9526	102.0000
36.9618	115.0000
36.9710	110.0000
36.9802	123.0000
36.9894	124.0000
36.9987	126.0000
37.0079	113.0000
37.0171	104.0000
37.0263	133.0000
37.0356	110.0000
37.0448	101.0000
37.0540	112.0000
37.0632	108.0000
37.0724	117.0000
37.0817	108.0000
37.0909	125.0000
37.1001	98.0000
37.1093	140.0000
37.1186	129.0000
37.1278	109.0000
37.1370	114.0000
37.1462	113.0000
37.1555	133.0000
37.1647	111.0000
37.1739	111.0000
37.1831	128.0000
37.1923	119.0000
37.2016	112.0000
37.2108	106.0000
37.2200	113.0000
37.2292	101.0000
37.2385	109.0000
37.2477	114.0000
37.2569	104.0000
37.2661	116.0000
37.2753	120.0000
37.2846	138.0000
37.2938	179.0000
37.3030	201.0000
37.3122	226.0000
37.3215	233.0000
37.3307	164.0000
37.3399	154.0000
37.3491	141.0000
37.3584	119.0000
37.3676	110.0000
37.3768	117.0000
37.3860	115.0000
37.3952	121.0000
37.4045	118.0000
37.4137	114.0000
37.4229	107.0000
37.4321	102.0000
37.4414	105.0000
37.4506	111.0000
37.4598	112.0000
37.4690	91.0000
37.4782	119.0000
37.4875	121.0000
37.4967	124.0000
37.5059	121.0000
37.5151	145.0000
37.5244	132.0000
37.5336	135.0000
37.5428	184.0000
37.5520	153.0000
37.5612	134.0000
37.5705	110.0000
37.5797	116.0000
37.5889	106.0000
37.5981	111.0000
37.6074	113.0000
37.6166	101.0000
37.6258	126.0000
37.6350	99.0000
37.6443	91.0000
37.6535	105.0000
37.6627	102.0000
37.6719	97.0000
37.6811	108.0000
37.6904	85.0000
37.6996	94.0000
37.7088	106.0000
37.7180	98.0000
37.7273	97.0000
37.7365	89.0000
37.7457	100.0000
37.7549	114.0000
37.7641	106.0000
37.7734	92.0000
37.7826	103.0000
37.7918	94.0000
37.8010	115.0000
37.8103	110.0000
37.8195	105.0000
37.8287	98.0000
37.8379	112.0000
37.8472	104.0000
37.8564	100.0000
37.8656	109.0000
37.8748	94.0000
37.8840	101.0000
37.8933	112.0000
37.9025	109.0000
37.9117	99.0000
37.9209	102.0000
37.9302	99.0000
37.9394	103.0000
37.9486	99.0000
37.9578	95.0000
37.9670	100.0000
37.9763	96.0000
37.9855	117.0000
37.9947	99.0000
38.0039	125.0000
38.0132	91.0000
38.0224	98.0000
38.0316	87.0000
38.0408	116.0000
38.0501	77.0000
38.0593	107.0000
38.0685	116.0000
38.0777	105.0000
38.0869	107.0000
38.0962	102.0000
38.1054	113.0000
38.1146	102.0000
38.1238	110.0000
38.1331	90.0000
38.1423	109.0000
38.1515	91.0000
38.1607	99.0000
38.1699	106.0000
38.1792	104.0000
38.1884	106.0000
38.1976	84.0000
38.2068	103.0000
38.2161	96.0000
38.2253	98.0000
38.2345	108.0000
38.2437	122.0000
38.2529	94.0000
38.2622	108.0000
38.2714	82.0000
38.2806	93.0000
38.2898	106.0000
38.2991	99.0000
38.3083	104.0000
38.3175	83.0000
38.3267	94.0000
38.3360	98.0000
38.3452	101.0000
38.3544	91.0000
38.3636	81.0000
38.3728	85.0000
38.3821	112.0000
38.3913	118.0000
38.4005	106.0000
38.4097	110.0000
38.4190	101.0000
38.4282	86.0000
38.4374	111.0000
38.4466	95.0000
38.4558	89.0000
38.4651	102.0000
38.4743	121.0000
38.4835	117.0000
38.4927	104.0000
38.5020	113.0000
38.5112	86.0000
38.5204	113.0000
38.5296	113.0000
38.5389	96.0000
38.5481	120.0000
38.5573	99.0000
38.5665	119.0000
38.5757	97.0000
38.5850	104.0000
38.5942	94.0000
38.6034	96.0000
38.6126	105.0000
38.6219	115.0000
38.6311	91.0000
38.6403	106.0000
38.6495	100.0000
38.6587	101.0000
38.6680	78.0000
38.6772	106.0000
38.6864	73.0000
38.6956	119.0000
38.7049	108.0000
38.7141	89.0000
38.7233	105.0000
38.7325	88.0000
38.7417	96.0000
38.7510	112.0000
38.7602	98.0000
38.7694	101.0000
38.7786	106.0000
38.7879	118.0000
38.7971	102.0000
38.8063	113.0000
38.8155	110.0000
38.8248	93.0000
38.8340	105.0000
38.8432	103.0000
38.8524	91.0000
38.8616	97.0000
38.8709	108.0000
38.8801	103.0000
38.8893	101.0000
38.8985	98.0000
38.9078	90.0000
38.9170	88.0000
38.9262	99.0000
38.9354	82.0000
38.9446	99.0000
38.9539	83.0000
38.9631	108.0000
38.9723	91.0000
38.9815	96.0000
38.9908	98.0000
39.0000	101.0000
39.0092	119.0000
39.0184	89.0000
39.0277	87.0000
39.0369	100.0000
39.0461	96.0000
39.0553	87.0000
39.0645	104.0000
39.0738	88.0000
39.0830	97.0000
39.0922	90.0000
39.1014	95.0000
39.1107	79.0000
39.1199	107.0000
39.1291	94.0000
39.1383	92.0000
39.1475	101.0000
39.1568	86.0000
39.1660	113.0000
39.1752	87.0000
39.1844	98.0000
39.1937	99.0000
39.2029	110.0000
39.2121	103.0000
39.2213	90.0000
39.2306	91.0000
39.2398	88.0000
39.2490	89.0000
39.2582	83.0000
39.2674	96.0000
39.2767	90.0000
39.2859	84.0000
39.2951	106.0000
39.3043	79.0000
39.3136	84.0000
39.3228	109.0000
39.3320	117.0000
39.3412	78.0000
39.3504	101.0000
39.3597	74.0000
39.3689	102.0000
39.3781	102.0000
39.3873	97.0000
39.3966	98.0000
39.4058	100.0000
39.4150	99.0000
39.4242	109.0000
39.4334	104.0000
39.4427	99.0000
39.4519	95.0000
39.4611	126.0000
39.4703	93.0000
39.4796	101.0000
39.4888	81.0000
39.4980	102.0000
39.5072	122.0000
39.5165	92.0000
39.5257	92.0000
39.5349	83.0000
39.5441	110.0000
39.5533	107.0000
39.5626	111.0000
39.5718	87.0000
39.5810	90.0000
39.5902	100.0000
39.5995	105.0000
39.6087	96.0000
39.6179	105.0000
39.6271	88.0000
39.6363	99.0000
39.6456	103.0000
39.6548	90.0000
39.6640	94.0000
39.6732	88.0000
39.6825	98.0000
39.6917	76.0000
39.7009	77.0000
39.7101	92.0000
39.7194	104.0000
39.7286	99.0000
39.7378	95.0000
39.7470	93.0000
39.7562	94.0000
39.7655	95.0000
39.7747	117.0000
39.7839	101.0000
39.7931	110.0000
39.8024	91.0000
39.8116	102.0000
39.8208	85.0000
39.8300	92.0000
39.8392	109.0000
39.8485	86.0000
39.8577	103.0000
39.8669	90.0000
39.8761	110.0000
39.8854	108.0000
39.8946	97.0000
39.9038	101.0000
39.9130	84.0000
39.9222	106.0000
39.9315	87.0000
39.9407	101.0000
39.9499	103.0000
39.9591	90.0000
39.9684	104.0000
39.9776	85.0000
39.9868	96.0000
39.9960	92.0000
40.0053	101.0000
40.0145	105.0000
40.0237	95.0000
40.0329	89.0000
40.0421	85.0000
40.0514	92.0000
40.0606	97.0000
40.0698	93.0000
40.0790	101.0000
40.0883	103.0000
40.0975	101.0000
40.1067	95.0000
40.1159	101.0000
40.1251	88.0000
40.1344	86.0000
40.1436	101.0000
40.1528	96.0000
40.1620	103.0000
40.1713	82.0000
40.1805	102.0000
40.1897	98.0000
40.1989	72.0000
40.2082	75.0000
40.2174	88.0000
40.2266	104.0000
40.2358	84.0000
40.2450	89.0000
40.2543	91.0000
40.2635	93.0000
40.2727	85.0000
40.2819	103.0000
40.2912	77.0000
40.3004	77.0000
40.3096	100.0000
40.3188	98.0000
40.3280	96.0000
40.3373	91.0000
40.3465	93.0000
40.3557	99.0000
40.3649	88.0000
40.3742	90.0000
40.3834	85.0000
40.3926	93.0000
40.4018	96.0000
40.4111	82.0000
40.4203	94.0000
40.4295	87.0000
40.4387	98.0000
40.4479	87.0000
40.4572	96.0000
40.4664	99.0000
40.4756	102.0000
40.4848	93.0000
40.4941	102.0000
40.5033	92.0000
40.5125	100.0000
40.5217	85.0000
40.5309	99.0000
40.5402	85.0000
40.5494	99.0000
40.5586	98.0000
40.5678	95.0000
40.5771	97.0000
40.5863	79.0000
40.5955	95.0000
40.6047	73.0000
40.6139	102.0000
40.6232	91.0000
40.6324	86.0000
40.6416	79.0000
40.6508	82.0000
40.6601	104.0000
40.6693	70.0000
40.6785	101.0000
40.6877	91.0000
40.6970	111.0000
40.7062	86.0000
40.7154	98.0000
40.7246	104.0000
40.7338	118.0000
40.7431	83.0000
40.7523	86.0000
40.7615	99.0000
40.7707	100.0000
40.7800	90.0000
40.7892	104.0000
40.7984	102.0000
40.8076	100.0000
40.8168	79.0000
40.8261	85.0000
40.8353	96.0000
40.8445	79.0000
40.8537	102.0000
40.8630	93.0000
40.8722	102.0000
40.8814	107.0000
40.8906	86.0000
40.8999	120.0000
40.9091	96.0000
40.9183	113.0000
40.9275	94.0000
40.9367	110.0000
40.9460	101.0000
40.9552	92.0000
40.9644	79.0000
40.9736	99.0000
40.9829	89.0000
40.9921	118.0000
41.0013	110.0000
41.0105	86.0000
41.0197	100.0000
41.0290	99.0000
41.0382	95.0000
41.0474	101.0000
41.0566	104.0000
41.0659	77.0000
41.0751	81.0000
41.0843	91.0000
41.0935	104.0000
41.1027	98.0000
41.1120	99.0000
41.1212	102.0000
41.1304	85.0000
41.1396	98.0000
41.1489	78.0000
41.1581	89.0000
41.1673	111.0000
41.1765	98.0000
41.1858	94.0000
41.1950	72.0000
41.2042	107.0000
41.2134	97.0000
41.2226	89.0000
41.2319	107.0000
41.2411	98.0000
41.2503	87.0000
41.2595	79.0000
41.2688	101.0000
41.2780	106.0000
41.2872	92.0000
41.2964	105.0000
41.3056	106.0000
41.3149	93.0000
41.3241	97.0000
41.3333	85.0000
41.3425	105.0000
41.3518	104.0000
41.3610	97.0000
41.3702	81.0000
41.3794	97.0000
41.3887	97.0000
41.3979	92.0000
41.4071	92.0000
41.4163	103.0000
41.4255	108.0000
41.4348	98.0000
41.4440	97.0000
41.4532	108.0000
41.4624	99.0000
41.4717	95.0000
41.4809	97.0000
41.4901	96.0000
41.4993	89.0000
41.5085	106.0000
41.5178	81.0000
41.5270	100.0000
41.5362	84.0000
41.5454	95.0000
41.5547	93.0000
41.5639	78.0000
41.5731	85.0000
41.5823	75.0000
41.5915	104.0000
41.6008	88.0000
41.6100	89.0000
41.6192	94.0000
41.6284	108.0000
41.6377	88.0000
41.6469	91.0000
41.6561	101.0000
41.6653	102.0000
41.6746	87.0000
41.6838	109.0000
41.6930	101.0000
41.7022	86.0000
41.7114	93.0000
41.7207	98.0000
41.7299	99.0000
41.7391	90.0000
41.7483	95.0000
41.7576	101.0000
41.7668	98.0000
41.7760	85.0000
41.7852	103.0000
41.7944	93.0000
41.8037	94.0000
41.8129	121.0000
41.8221	92.0000
41.8313	94.0000
41.8406	98.0000
41.8498	100.0000
41.8590	98.0000
41.8682	108.0000
41.8775	102.0000
41.8867	96.0000
41.8959	98.0000
41.9051	83.0000
41.9143	101.0000
41.9236	101.0000
41.9328	101.0000
41.9420	97.0000
41.9512	79.0000
41.9605	82.0000
41.9697	91.0000
41.9789	92.0000
41.9881	90.0000
41.9973	104.0000
42.0066	90.0000
42.0158	99.0000
42.0250	75.0000
42.0342	104.0000
42.0435	86.0000
42.0527	86.0000
42.0619	89.0000
42.0711	99.0000
42.0804	104.0000
42.0896	102.0000
42.0988	91.0000
42.1080	93.0000
42.1172	83.0000
42.1265	95.0000
42.1357	106.0000
42.1449	93.0000
42.1541	92.0000
42.1634	95.0000
42.1726	89.0000
42.1818	71.0000
42.1910	111.0000
42.2002	98.0000
42.2095	83.0000
42.2187	93.0000
42.2279	85.0000
42.2371	95.0000
42.2464	101.0000
42.2556	83.0000
42.2648	82.0000
42.2740	91.0000
42.2832	85.0000
42.2925	99.0000
42.3017	81.0000
42.3109	112.0000
42.3201	100.0000
42.3294	85.0000
42.3386	105.0000
42.3478	102.0000
42.3570	97.0000
42.3663	103.0000
42.3755	100.0000
42.3847	79.0000
42.3939	76.0000
42.4031	109.0000
42.4124	95.0000
42.4216	90.0000
42.4308	90.0000
42.4400	96.0000
42.4493	98.0000
42.4585	109.0000
42.4677	86.0000
42.4769	104.0000
42.4861	69.0000
42.4954	82.0000
42.5046	74.0000
42.5138	85.0000
42.5230	98.0000
42.5323	98.0000
42.5415	115.0000
42.5507	113.0000
42.5599	86.0000
42.5692	94.0000
42.5784	105.0000
42.5876	83.0000
42.5968	100.0000
42.6060	92.0000
42.6153	81.0000
42.6245	83.0000
42.6337	109.0000
42.6429	84.0000
42.6522	86.0000
42.6614	109.0000
42.6706	96.0000
42.6798	111.0000
42.6890	94.0000
42.6983	102.0000
42.7075	95.0000
42.7167	99.0000
42.7259	90.0000
42.7352	78.0000
42.7444	71.0000
42.7536	93.0000
42.7628	104.0000
42.7720	106.0000
42.7813	85.0000
42.7905	108.0000
42.7997	95.0000
42.8089	88.0000
42.8182	85.0000
42.8274	80.0000
42.8366	97.0000
42.8458	82.0000
42.8551	99.0000
42.8643	91.0000
42.8735	90.0000
42.8827	99.0000
42.8919	90.0000
42.9012	98.0000
42.9104	90.0000
42.9196	82.0000
42.9288	87.0000
42.9381	103.0000
42.9473	92.0000
42.9565	103.0000
42.9657	100.0000
42.9749	104.0000
42.9842	80.0000
42.9934	75.0000
43.0026	102.0000
43.0118	93.0000
43.0211	72.0000
43.0303	100.0000
43.0395	91.0000
43.0487	92.0000
43.0580	90.0000
43.0672	79.0000
43.0764	106.0000
43.0856	89.0000
43.0948	99.0000
43.1041	95.0000
43.1133	85.0000
43.1225	103.0000
43.1317	86.0000
43.1410	95.0000
43.1502	104.0000
43.1594	86.0000
43.1686	89.0000
43.1778	87.0000
43.1871	88.0000
43.1963	91.0000
43.2055	104.0000
43.2147	83.0000
43.2240	77.0000
43.2332	127.0000
43.2424	84.0000
43.2516	103.0000
43.2609	89.0000
43.2701	86.0000
43.2793	90.0000
43.2885	101.0000
43.2977	107.0000
43.3070	90.0000
43.3162	97.0000
43.3254	104.0000
43.3346	117.0000
43.3439	123.0000
43.3531	129.0000
43.3623	127.0000
43.3715	146.0000
43.3807	141.0000
43.3900	128.0000
43.3992	99.0000
43.4084	113.0000
43.4176	89.0000
43.4269	94.0000
43.4361	101.0000
43.4453	96.0000
43.4545	101.0000
43.4637	90.0000
43.4730	95.0000
43.4822	87.0000
43.4914	91.0000
43.5006	87.0000
43.5099	90.0000
43.5191	90.0000
43.5283	92.0000
43.5375	79.0000
43.5468	107.0000
43.5560	105.0000
43.5652	103.0000
43.5744	94.0000
43.5836	89.0000
43.5929	89.0000
43.6021	102.0000
43.6113	84.0000
43.6205	102.0000
43.6298	117.0000
43.6390	107.0000
43.6482	108.0000
43.6574	119.0000
43.6666	87.0000
43.6759	72.0000
43.6851	97.0000
43.6943	98.0000
43.7035	120.0000
43.7128	92.0000
43.7220	106.0000
43.7312	89.0000
43.7404	85.0000
43.7497	101.0000
43.7589	104.0000
43.7681	76.0000
43.7773	92.0000
43.7865	102.0000
43.7958	92.0000
43.8050	99.0000
43.8142	79.0000
43.8234	88.0000
43.8327	101.0000
43.8419	87.0000
43.8511	98.0000
43.8603	86.0000
43.8695	102.0000
43.8788	111.0000
43.8880	90.0000
43.8972	101.0000
43.9064	80.0000
43.9157	99.0000
43.9249	81.0000
43.9341	73.0000
43.9433	83.0000
43.9525	89.0000
43.9618	87.0000
43.9710	95.0000
43.9802	86.0000
43.9894	70.0000
43.9987	80.0000
44.0079	85.0000
44.0171	81.0000
44.0263	81.0000
44.0356	85.0000
44.0448	80.0000
44.0540	106.0000
44.0632	89.0000
44.0724	98.0000
44.0817	78.0000
44.0909	100.0000
44.1001	102.0000
44.1093	104.0000
44.1186	84.0000
44.1278	105.0000
44.1370	90.0000
44.1462	90.0000
44.1554	105.0000
44.1647	78.0000
44.1739	91.0000
44.1831	90.0000
44.1923	91.0000
44.2016	93.0000
44.2108	83.0000
44.2200	87.0000
44.2292	104.0000
44.2385	75.0000
44.2477	92.0000
44.2569	84.0000
44.2661	97.0000
44.2753	81.0000
44.2846	98.0000
44.2938	84.0000
44.3030	68.0000
44.3122	116.0000
44.3215	65.0000
44.3307	95.0000
44.3399	81.0000
44.3491	79.0000
44.3583	93.0000
44.3676	98.0000
44.3768	84.0000
44.3860	90.0000
44.3952	89.0000
44.4045	68.0000
44.4137	100.0000
44.4229	87.0000
44.4321	83.0000
44.4414	87.0000
44.4506	103.0000
44.4598	83.0000
44.4690	81.0000
44.4782	95.0000
44.4875	82.0000
44.4967	81.0000
44.5059	85.0000
44.5151	75.0000
44.5244	72.0000
44.5336	85.0000
44.5428	96.0000
44.5520	80.0000
44.5612	86.0000
44.5705	90.0000
44.5797	85.0000
44.5889	92.0000
44.5981	111.0000
44.6074	71.0000
44.6166	99.0000
44.6258	86.0000
44.6350	107.0000
44.6442	72.0000
44.6535	80.0000
44.6627	100.0000
44.6719	103.0000
44.6811	101.0000
44.6904	94.0000
44.6996	69.0000
44.7088	88.0000
44.7180	85.0000
44.7273	94.0000
44.7365	94.0000
44.7457	81.0000
44.7549	92.0000
44.7641	87.0000
44.7734	71.0000
44.7826	88.0000
44.7918	92.0000
44.8010	82.0000
44.8103	92.0000
44.8195	97.0000
44.8287	104.0000
44.8379	89.0000
44.8471	89.0000
44.8564	98.0000
44.8656	78.0000
44.8748	75.0000
44.8840	87.0000
44.8933	95.0000
44.9025	77.0000
44.9117	105.0000
44.9209	79.0000
44.9302	95.0000
44.9394	71.0000
44.9486	81.0000
44.9578	92.0000
44.9670	84.0000
44.9763	102.0000
44.9855	88.0000
44.9947	83.0000
45.0039	84.0000
45.0132	96.0000
45.0224	93.0000
45.0316	88.0000
45.0408	82.0000
45.0500	94.0000
45.0593	72.0000
45.0685	64.0000
45.0777	84.0000
45.0869	88.0000
45.0962	98.0000
45.1054	92.0000
45.1146	73.0000
45.1238	89.0000
45.1330	84.0000
45.1423	91.0000
45.1515	84.0000
45.1607	105.0000
45.1699	81.0000
45.1792	89.0000
45.1884	99.0000
45.1976	97.0000
45.2068	96.0000
45.2161	78.0000
45.2253	84.0000
45.2345	93.0000
45.2437	74.0000
45.2529	90.0000
45.2622	89.0000
45.2714	82.0000
45.2806	80.0000
45.2898	82.0000
45.2991	65.0000
45.3083	96.0000
45.3175	75.0000
45.3267	97.0000
45.3359	84.0000
45.3452	74.0000
45.3544	97.0000
45.3636	77.0000
45.3728	87.0000
45.3821	87.0000
45.3913	81.0000
45.4005	72.0000
45.4097	98.0000
45.4190	82.0000
45.4282	98.0000
45.4374	94.0000
45.4466	88.0000
45.4558	122.0000
45.4651	120.0000
45.4743	130.0000
45.4835	126.0000
45.4927	104.0000
45.5020	136.0000
45.5112	100.0000
45.5204	99.0000
45.5296	90.0000
45.5388	104.0000
45.5481	77.0000
45.5573	77.0000
45.5665	84.0000
45.5757	97.0000
45.5850	92.0000
45.5942	98.0000
45.6034	64.0000
45.6126	79.0000
45.6219	92.0000
45.6311	87.0000
45.6403	69.0000
45.6495	76.0000
45.6587	104.0000
45.6680	98.0000
45.6772	97.0000
45.6864	82.0000
45.6956	103.0000
45.7049	86.0000
45.7141	83.0000
45.7233	102.0000
45.7325	111.0000
45.7417	107.0000
45.7510	101.0000
45.7602	94.0000
45.7694	101.0000
45.7786	109.0000
45.7879	100.0000
45.7971	88.0000
45.8063	84.0000
45.8155	78.0000
45.8247	82.0000
45.8340	93.0000
45.8432	90.0000
45.8524	91.0000
45.8616	82.0000
45.8709	85.0000
45.8801	73.0000
45.8893	89.0000
45.8985	76.0000
45.9078	77.0000
45.9170	80.0000
45.9262	72.0000
45.9354	87.0000
45.9446	87.0000
45.9539	83.0000
45.9631	70.0000
45.9723	72.0000
45.9815	101.0000
45.9908	67.0000
46.0000	71.0000
46.0092	79.0000
46.0184	65.0000
46.0276	79.0000
46.0369	99.0000
46.0461	84.0000
46.0553	93.0000
46.0645	84.0000
46.0738	78.0000
46.0830	89.0000
46.0922	82.0000
46.1014	91.0000
46.1107	90.0000
46.1199	89.0000
46.1291	85.0000
46.1383	99.0000
46.1475	89.0000
46.1568	76.0000
46.1660	68.0000
46.1752	78.0000
46.1844	82.0000
46.1937	79.0000
46.2029	84.0000
46.2121	85.0000
46.2213	81.0000
46.2305	78.0000
46.2398	81.0000
46.2490	87.0000
46.2582	79.0000
46.2674	78.0000
46.2767	79.0000
46.2859	82.0000
46.2951	79.0000
46.3043	91.0000
46.3135	76.0000
46.3228	73.0000
46.3320	96.0000
46.3412	78.0000
46.3504	70.0000
46.3597	65.0000
46.3689	86.0000
46.3781	84.0000
46.3873	77.0000
46.3966	75.0000
46.4058	85.0000
46.4150	78.0000
46.4242	71.0000
46.4334	83.0000
46.4427	87.0000
46.4519	78.0000
46.4611	77.0000
46.4703	72.0000
46.4796	82.0000
46.4888	66.0000
46.4980	89.0000
46.5072	63.0000
46.5164	64.0000
46.5257	81.0000
46.5349	66.0000
46.5441	72.0000
46.5533	82.0000
46.5626	69.0000
46.5718	80.0000
46.5810	88.0000
46.5902	74.0000
46.5995	81.0000
46.6087	85.0000
46.6179	73.0000
46.6271	72.0000
46.6363	89.0000
46.6456	89.0000
46.6548	85.0000
46.6640	74.0000
46.6732	77.0000
46.6825	82.0000
46.6917	98.0000
46.7009	91.0000
46.7101	74.0000
46.7193	74.0000
46.7286	89.0000
46.7378	80.0000
46.7470	64.0000
46.7562	88.0000
46.7655	74.0000
46.7747	86.0000
46.7839	79.0000
46.7931	87.0000
46.8024	75.0000
46.8116	84.0000
46.8208	106.0000
46.8300	80.0000
46.8392	74.0000
46.8485	71.0000
46.8577	80.0000
46.8669	81.0000
46.8761	82.0000
46.8854	69.0000
46.8946	101.0000
46.9038	68.0000
46.9130	91.0000
46.9222	73.0000
46.9315	84.0000
46.9407	67.0000
46.9499	61.0000
46.9591	74.0000
46.9684	82.0000
46.9776	66.0000
46.9868	84.0000
46.9960	71.0000
47.0052	59.0000
47.0145	78.0000
47.0237	68.0000
47.0329	64.0000
47.0421	75.0000
47.0514	74.0000
47.0606	68.0000
47.0698	65.0000
47.0790	90.0000
47.0883	72.0000
47.0975	73.0000
47.1067	63.0000
47.1159	75.0000
47.1251	72.0000
47.1344	79.0000
47.1436	77.0000
47.1528	77.0000
47.1620	94.0000
47.1713	73.0000
47.1805	66.0000
47.1897	72.0000
47.1989	76.0000
47.2081	72.0000
47.2174	67.0000
47.2266	82.0000
47.2358	69.0000
47.2450	68.0000
47.2543	88.0000
47.2635	77.0000
47.2727	87.0000
47.2819	64.0000
47.2912	54.0000
47.3004	74.0000
47.3096	82.0000
47.3188	68.0000
47.3280	69.0000
47.3373	74.0000
47.3465	67.0000
47.3557	78.0000
47.3649	83.0000
47.3742	65.0000
47.3834	67.0000
47.3926	73.0000
47.4018	77.0000
47.4110	60.0000
47.4203	75.0000
47.4295	76.0000
47.4387	68.0000
47.4479	78.0000
47.4572	83.0000
47.4664	88.0000
47.4756	64.0000
47.4848	67.0000
47.4940	65.0000
47.5033	77.0000
47.5125	72.0000
47.5217	87.0000
47.5309	70.0000
47.5402	69.0000
47.5494	79.0000
47.5586	73.0000
47.5678	70.0000
47.5771	69.0000
47.5863	63.0000
47.5955	66.0000
47.6047	71.0000
47.6139	92.0000
47.6232	80.0000
47.6324	74.0000
47.6416	67.0000
47.6508	62.0000
47.6601	75.0000
47.6693	63.0000
47.6785	92.0000
47.6877	69.0000
47.6969	67.0000
47.7062	70.0000
47.7154	83.0000
47.7246	74.0000
47.7338	65.0000
47.7431	75.0000
47.7523	69.0000
47.7615	89.0000
47.7707	67.0000
47.7800	78.0000
47.7892	75.0000
47.7984	70.0000
47.8076	68.0000
47.8168	79.0000
47.8261	71.0000
47.8353	70.0000
47.8445	67.0000
47.8537	73.0000
47.8630	72.0000
47.8722	60.0000
47.8814	62.0000
47.8906	62.0000
47.8998	64.0000
47.9091	62.0000
47.9183	78.0000
47.9275	76.0000
47.9367	65.0000
47.9460	65.0000
47.9552	81.0000
47.9644	72.0000
47.9736	72.0000
47.9829	78.0000
47.9921	75.0000
48.0013	79.0000
