11.0000	635.0000
11.0092	614.0000
11.0184	603.0000
11.0277	584.0000
11.0369	596.0000
11.0461	580.0000
11.0553	582.0000
11.0646	617.0000
11.0738	558.0000
11.0830	644.0000
11.0922	581.0000
11.1014	624.0000
11.1107	624.0000
11.1199	594.0000
11.1291	604.0000
11.1383	555.0000
11.1476	555.0000
11.1568	544.0000
11.1660	580.0000
11.1752	564.0000
11.1845	573.0000
11.1937	546.0000
11.2029	614.0000
11.2121	594.0000
11.2213	583.0000
11.2306	541.0000
11.2398	536.0000
11.2490	576.0000
11.2582	601.0000
11.2675	566.0000
11.2767	569.0000
11.2859	567.0000
11.2951	518.0000
11.3043	561.0000
11.3136	566.0000
11.3228	532.0000
11.3320	549.0000
11.3412	552.0000
11.3505	582.0000
11.3597	527.0000
11.3689	517.0000
11.3781	556.0000
11.3874	567.0000
11.3966	516.0000
11.4058	541.0000
11.4150	531.0000
11.4242	554.0000
11.4335	532.0000
11.4427	504.0000
11.4519	524.0000
11.4611	530.0000
11.4704	530.0000
11.4796	501.0000
11.4888	510.0000
11.4980	542.0000
11.5072	509.0000
11.5165	524.0000
11.5257	548.0000
11.5349	503.0000
11.5441	485.0000
11.5534	475.0000
11.5626	506.0000
11.5718	479.0000
11.5810	504.0000
11.5902	504.0000
11.5995	494.0000
11.6087	516.0000
11.6179	484.0000
11.6271	478.0000
11.6364	500.0000
11.6456	489.0000
11.6548	459.0000
11.6640	496.0000
11.6733	519.0000
11.6825	479.0000
11.6917	460.0000
11.7009	515.0000
11.7101	521.0000
11.7194	475.0000
11.7286	458.0000
11.7378	485.0000
11.7470	508.0000
11.7563	455.0000
11.7655	496.0000
11.7747	498.0000
11.7839	500.0000
11.7931	504.0000
11.8024	458.0000
11.8116	490.0000
11.8208	459.0000
11.8300	464.0000
11.8393	487.0000
11.8485	463.0000
11.8577	490.0000
11.8669	491.0000
11.8762	477.0000
11.8854	510.0000
11.8946	451.0000
11.9038	458.0000
11.9130	456.0000
11.9223	461.0000
11.9315	440.0000
11.9407	466.0000
11.9499	458.0000
11.9592	463.0000
11.9684	451.0000
11.9776	427.0000
11.9868	459.0000
11.9960	459.0000
12.0053	418.0000
12.0145	445.0000
12.0237	454.0000
12.0329	429.0000
12.0422	457.0000
12.0514	410.0000
12.0606	441.0000
12.0698	444.0000
12.0791	492.0000
12.0883	448.0000
12.0975	415.0000
12.1067	402.0000
12.1159	410.0000
12.1252	451.0000
12.1344	467.0000
12.1436	431.0000
12.1528	443.0000
12.1621	482.0000
12.1713	428.0000
12.1805	485.0000
12.1897	400.0000
12.1989	405.0000
12.2082	407.0000
12.2174	405.0000
12.2266	418.0000
12.2358	417.0000
12.2451	400.0000
12.2543	439.0000
12.2635	444.0000
12.2727	399.0000
12.2819	417.0000
12.2912	439.0000
12.3004	438.0000
12.3096	405.0000
12.3188	367.0000
12.3281	380.0000
12.3373	403.0000
12.3465	430.0000
12.3557	388.0000
12.3650	410.0000
12.3742	388.0000
12.3834	397.0000
12.3926	428.0000
12.4018	374.0000
12.4111	393.0000
12.4203	386.0000
12.4295	433.0000
12.4387	403.0000
12.4480	389.0000
12.4572	406.0000
12.4664	409.0000
12.4756	395.0000
12.4848	401.0000
12.4941	357.0000
12.5033	386.0000
12.5125	353.0000
12.5217	409.0000
12.5310	404.0000
12.5402	390.0000
12.5494	384.0000
12.5586	419.0000
12.5679	384.0000
12.5771	384.0000
12.5863	390.0000
12.5955	400.0000
12.6047	364.0000
12.6140	392.0000
12.6232	426.0000
12.6324	378.0000
12.6416	392.0000
12.6509	341.0000
12.6601	383.0000
12.6693	386.0000
12.6785	380.0000
12.6877	360.0000
12.6970	351.0000
12.7062	373.0000
12.7154	366.0000
12.7246	351.0000
12.7339	321.0000
12.7431	353.0000
12.7523	378.0000
12.7615	363.0000
12.7707	350.0000
12.7800	344.0000
12.7892	371.0000
12.7984	357.0000
12.8076	380.0000
12.8169	356.0000
12.8261	355.0000
12.8353	368.0000
12.8445	360.0000
12.8538	362.0000
12.8630	352.0000
12.8722	347.0000
12.8814	381.0000
12.8906	340.0000
12.8999	333.0000
12.9091	335.0000
12.9183	357.0000
12.9275	366.0000
12.9368	348.0000
12.9460	373.0000
12.9552	337.0000
12.9644	347.0000
12.9736	356.0000
12.9829	350.0000
12.9921	335.0000
13.0013	350.0000
13.0105	352.0000
13.0198	343.0000
13.0290	342.0000
13.0382	346.0000
13.0474	357.0000
13.0567	343.0000
13.0659	360.0000
13.0751	303.0000
13.0843	319.0000
13.0935	299.0000
13.1028	326.0000
13.1120	345.0000
13.1212	364.0000
13.1304	338.0000
13.1397	347.0000
13.1489	377.0000
13.1581	325.0000
13.1673	316.0000
13.1765	322.0000
13.1858	313.0000
13.1950	327.0000
13.2042	332.0000
13.2134	334.0000
13.2227	318.0000
13.2319	318.0000
13.2411	324.0000
13.2503	304.0000
13.2596	345.0000
13.2688	326.0000
13.2780	319.0000
13.2872	347.0000
13.2964	367.0000
13.3057	359.0000
13.3149	334.0000
13.3241	322.0000
13.3333	299.0000
13.3426	332.0000
13.3518	298.0000
13.3610	303.0000
13.3702	309.0000
13.3794	312.0000
13.3887	300.0000
13.3979	327.0000
13.4071	316.0000
13.4163	344.0000
13.4256	331.0000
13.4348	299.0000
13.4440	270.0000
13.4532	296.0000
13.4624	340.0000
13.4717	321.0000
13.4809	312.0000
13.4901	306.0000
13.4993	313.0000
13.5086	313.0000
13.5178	347.0000
13.5270	336.0000
13.5362	293.0000
13.5455	277.0000
13.5547	325.0000
13.5639	329.0000
13.5731	288.0000
13.5823	294.0000
13.5916	320.0000
13.6008	312.0000
13.6100	343.0000
13.6192	292.0000
13.6285	299.0000
13.6377	300.0000
13.6469	293.0000
13.6561	322.0000
13.6653	292.0000
13.6746	335.0000
13.6838	315.0000
13.6930	315.0000
13.7022	296.0000
13.7115	303.0000
13.7207	302.0000
13.7299	289.0000
13.7391	298.0000
13.7484	314.0000
13.7576	303.0000
13.7668	283.0000
13.7760	306.0000
13.7852	274.0000
13.7945	283.0000
13.8037	288.0000
13.8129	292.0000
13.8221	307.0000
13.8314	301.0000
13.8406	289.0000
13.8498	285.0000
13.8590	286.0000
13.8682	303.0000
13.8775	289.0000
13.8867	303.0000
13.8959	277.0000
13.9051	290.0000
13.9144	302.0000
13.9236	294.0000
13.9328	303.0000
13.9420	300.0000
13.9512	298.0000
13.9605	244.0000
13.9697	279.0000
13.9789	281.0000
13.9881	274.0000
13.9974	282.0000
14.0066	262.0000
14.0158	276.0000
14.0250	301.0000
14.0343	325.0000
14.0435	284.0000
14.0527	271.0000
14.0619	280.0000
14.0711	299.0000
14.0804	286.0000
14.0896	306.0000
14.0988	276.0000
14.1080	249.0000
14.1173	286.0000
14.1265	291.0000
14.1357	263.0000
14.1449	252.0000
14.1541	282.0000
14.1634	287.0000
14.1726	268.0000
14.1818	294.0000
14.1910	262.0000
14.2003	285.0000
14.2095	278.0000
14.2187	280.0000
14.2279	268.0000
14.2372	280.0000
14.2464	255.0000
14.2556	264.0000
14.2648	265.0000
14.2740	288.0000
14.2833	277.0000
14.2925	282.0000
14.3017	255.0000
14.3109	275.0000
14.3202	266.0000
14.3294	275.0000
14.3386	288.0000
14.3478	244.0000
14.3570	264.0000
14.3663	271.0000
14.3755	275.0000
14.3847	258.0000
14.3939	277.0000
14.4032	256.0000
14.4124	247.0000
14.4216	278.0000
14.4308	251.0000
14.4401	236.0000
14.4493	270.0000
14.4585	252.0000
14.4677	284.0000
14.4769	251.0000
14.4862	250.0000
14.4954	279.0000
14.5046	269.0000
14.5138	261.0000
14.5231	260.0000
14.5323	256.0000
14.5415	283.0000
14.5507	259.0000
14.5599	273.0000
14.5692	276.0000
14.5784	263.0000
14.5876	266.0000
14.5968	261.0000
14.6061	262.0000
14.6153	282.0000
14.6245	279.0000
14.6337	236.0000
14.6429	252.0000
14.6522	259.0000
14.6614	271.0000
14.6706	253.0000
14.6798	248.0000
14.6891	257.0000
14.6983	296.0000
14.7075	239.0000
14.7167	258.0000
14.7260	265.0000
14.7352	273.0000
14.7444	247.0000
14.7536	246.0000
14.7628	239.0000
14.7721	256.0000
14.7813	254.0000
14.7905	269.0000
14.7997	247.0000
14.8090	239.0000
14.8182	264.0000
14.8274	246.0000
14.8366	270.0000
14.8458	230.0000
14.8551	267.0000
14.8643	253.0000
14.8735	231.0000
14.8827	257.0000
14.8920	262.0000
14.9012	285.0000
14.9104	244.0000
14.9196	274.0000
14.9289	267.0000
14.9381	240.0000
14.9473	269.0000
14.9565	234.0000
14.9657	225.0000
14.9750	236.0000
14.9842	242.0000
14.9934	256.0000
15.0026	251.0000
15.0119	234.0000
15.0211	239.0000
15.0303	239.0000
15.0395	269.0000
15.0487	266.0000
15.0580	262.0000
15.0672	264.0000
15.0764	251.0000
15.0856	257.0000
15.0949	235.0000
15.1041	253.0000
15.1133	243.0000
15.1225	233.0000
15.1317	237.0000
15.1410	255.0000
15.1502	263.0000
15.1594	261.0000
15.1686	244.0000
15.1779	232.0000
15.1871	257.0000
15.1963	262.0000
15.2055	220.0000
15.2148	247.0000
15.2240	236.0000
15.2332	233.0000
15.2424	243.0000
15.2516	245.0000
15.2609	233.0000
15.2701	227.0000
15.2793	255.0000
15.2885	211.0000
15.2978	254.0000
15.3070	248.0000
15.3162	241.0000
15.3254	237.0000
15.3346	234.0000
15.3439	243.0000
15.3531	228.0000
15.3623	259.0000
15.3715	260.0000
15.3808	217.0000
15.3900	234.0000
15.3992	267.0000
15.4084	239.0000
15.4177	241.0000
15.4269	230.0000
15.4361	230.0000
15.4453	249.0000
15.4545	236.0000
15.4638	250.0000
15.4730	240.0000
15.4822	227.0000
15.4914	259.0000
15.5007	266.0000
15.5099	262.0000
15.5191	215.0000
15.5283	250.0000
15.5375	245.0000
15.5468	242.0000
15.5560	239.0000
15.5652	246.0000
15.5744	249.0000
15.5837	257.0000
15.5929	210.0000
15.6021	202.0000
15.6113	229.0000
15.6206	254.0000
15.6298	227.0000
15.6390	234.0000
15.6482	229.0000
15.6574	236.0000
15.6667	252.0000
15.6759	216.0000
15.6851	236.0000
15.6943	172.0000
15.7036	215.0000
15.7128	227.0000
15.7220	230.0000
15.7312	210.0000
15.7404	220.0000
15.7497	216.0000
15.7589	233.0000
15.7681	231.0000
15.7773	216.0000
15.7866	240.0000
15.7958	252.0000
15.8050	226.0000
15.8142	211.0000
15.8234	229.0000
15.8327	203.0000
15.8419	237.0000
15.8511	215.0000
15.8603	244.0000
15.8696	228.0000
15.8788	221.0000
15.8880	216.0000
15.8972	227.0000
15.9065	210.0000
15.9157	238.0000
15.9249	219.0000
15.9341	223.0000
15.9433	205.0000
15.9526	212.0000
15.9618	244.0000
15.9710	221.0000
15.9802	224.0000
15.9895	241.0000
15.9987	221.0000
16.0079	220.0000
16.0171	232.0000
16.0263	218.0000
16.0356	225.0000
16.0448	271.0000
16.0540	249.0000
16.0632	225.0000
16.0725	201.0000
16.0817	225.0000
16.0909	246.0000
16.1001	202.0000
16.1094	209.0000
16.1186	220.0000
16.1278	206.0000
16.1370	229.0000
16.1462	211.0000
16.1555	187.0000
16.1647	229.0000
16.1739	196.0000
16.1831	212.0000
16.1924	243.0000
16.2016	237.0000
16.2108	206.0000
16.2200	195.0000
16.2292	215.0000
16.2385	229.0000
16.2477	236.0000
16.2569	189.0000
16.2661	218.0000
16.2754	195.0000
16.2846	187.0000
16.2938	193.0000
16.3030	234.0000
16.3122	229.0000
16.3215	217.0000
16.3307	217.0000
16.3399	216.0000
16.3491	212.0000
16.3584	247.0000
16.3676	209.0000
16.3768	219.0000
16.3860	212.0000
16.3953	214.0000
16.4045	201.0000
16.4137	235.0000
16.4229	221.0000
16.4321	208.0000
16.4414	219.0000
16.4506	216.0000
16.4598	203.0000
16.4690	185.0000
16.4783	216.0000
16.4875	199.0000
16.4967	192.0000
16.5059	205.0000
16.5151	198.0000
16.5244	225.0000
16.5336	213.0000
16.5428	195.0000
16.5520	198.0000
16.5613	203.0000
16.5705	224.0000
16.5797	205.0000
16.5889	208.0000
16.5982	193.0000
16.6074	201.0000
16.6166	230.0000
16.6258	223.0000
16.6350	207.0000
16.6443	218.0000
16.6535	206.0000
16.6627	206.0000
16.6719	189.0000
16.6812	207.0000
16.6904	220.0000
16.6996	194.0000
16.7088	207.0000
16.7180	214.0000
16.7273	185.0000
16.7365	194.0000
16.7457	191.0000
16.7549	204.0000
16.7642	199.0000
16.7734	197.0000
16.7826	218.0000
16.7918	218.0000
16.8011	211.0000
16.8103	205.0000
16.8195	189.0000
16.8287	205.0000
16.8379	179.0000
16.8472	190.0000
16.8564	203.0000
16.8656	202.0000
16.8748	182.0000
16.8841	195.0000
16.8933	203.0000
16.9025	212.0000
16.9117	207.0000
16.9209	207.0000
16.9302	189.0000
16.9394	205.0000
16.9486	174.0000
16.9578	205.0000
16.9671	204.0000
16.9763	200.0000
16.9855	193.0000
16.9947	202.0000
17.0039	188.0000
17.0132	187.0000
17.0224	198.0000
17.0316	198.0000
17.0408	209.0000
17.0501	198.0000
17.0593	203.0000
17.0685	196.0000
17.0777	197.0000
17.0870	184.0000
17.0962	200.0000
17.1054	173.0000
17.1146	190.0000
17.1238	194.0000
17.1331	179.0000
17.1423	196.0000
17.1515	188.0000
17.1607	185.0000
17.1700	213.0000
17.1792	207.0000
17.1884	197.0000
17.1976	174.0000
17.2068	204.0000
17.2161	180.0000
17.2253	199.0000
17.2345	188.0000
17.2437	180.0000
17.2530	187.0000
17.2622	190.0000
17.2714	203.0000
17.2806	192.0000
17.2899	177.0000
17.2991	195.0000
17.3083	178.0000
17.3175	178.0000
17.3267	191.0000
17.3360	184.0000
17.3452	183.0000
17.3544	209.0000
17.3636	180.0000
17.3729	183.0000
17.3821	181.0000
17.3913	208.0000
17.4005	191.0000
17.4097	184.0000
17.4190	184.0000
17.4282	180.0000
17.4374	177.0000
17.4466	171.0000
17.4559	164.0000
17.4651	159.0000
17.4743	187.0000
17.4835	179.0000
17.4927	189.0000
17.5020	193.0000
17.5112	175.0000
17.5204	173.0000
17.5296	180.0000
17.5389	200.0000
17.5481	172.0000
17.5573	177.0000
17.5665	176.0000
17.5758	176.0000
17.5850	156.0000
17.5942	180.0000
17.6034	173.0000
17.6126	183.0000
17.6219	185.0000
17.6311	190.0000
17.6403	164.0000
17.6495	186.0000
17.6588	160.0000
17.6680	173.0000
17.6772	166.0000
17.6864	189.0000
17.6956	183.0000
17.7049	185.0000
17.7141	176.0000
17.7233	175.0000
17.7325	164.0000
17.7418	175.0000
17.7510	149.0000
17.7602	185.0000
17.7694	183.0000
17.7787	163.0000
17.7879	172.0000
17.7971	170.0000
17.8063	168.0000
17.8155	166.0000
17.8248	176.0000
17.8340	217.0000
17.8432	182.0000
17.8524	191.0000
17.8617	162.0000
17.8709	182.0000
17.8801	180.0000
17.8893	201.0000
17.8985	171.0000
17.9078	170.0000
17.9170	188.0000
17.9262	191.0000
17.9354	157.0000
17.9447	165.0000
17.9539	161.0000
17.9631	174.0000
17.9723	172.0000
17.9816	156.0000
17.9908	174.0000
18.0000	199.0000
18.0092	171.0000
18.0184	138.0000
18.0277	164.0000
18.0369	163.0000
18.0461	170.0000
18.0553	165.0000
18.0646	145.0000
18.0738	164.0000
18.0830	191.0000
18.0922	150.0000
18.1014	171.0000
18.1107	158.0000
18.1199	160.0000
18.1291	164.0000
18.1383	154.0000
18.1476	167.0000
18.1568	167.0000
18.1660	142.0000
18.1752	151.0000
18.1844	187.0000
18.1937	187.0000
18.2029	176.0000
18.2121	173.0000
18.2213	201.0000
18.2306	166.0000
18.2398	148.0000
18.2490	151.0000
18.2582	151.0000
18.2675	172.0000
18.2767	155.0000
18.2859	163.0000
18.2951	189.0000
18.3043	160.0000
18.3136	184.0000
18.3228	163.0000
18.3320	183.0000
18.3412	188.0000
18.3505	168.0000
18.3597	177.0000
18.3689	153.0000
18.3781	165.0000
18.3873	173.0000
18.3966	168.0000
18.4058	165.0000
18.4150	158.0000
18.4242	160.0000
18.4335	175.0000
18.4427	171.0000
18.4519	166.0000
18.4611	164.0000
18.4704	167.0000
18.4796	154.0000
18.4888	163.0000
18.4980	154.0000
18.5072	151.0000
18.5165	158.0000
18.5257	146.0000
18.5349	158.0000
18.5441	178.0000
18.5534	172.0000
18.5626	139.0000
18.5718	168.0000
18.5810	188.0000
18.5902	181.0000
18.5995	177.0000
18.6087	157.0000
18.6179	163.0000
18.6271	161.0000
18.6364	173.0000
18.6456	156.0000
18.6548	191.0000
18.6640	171.0000
18.6732	153.0000
18.6825	155.0000
18.6917	176.0000
18.7009	166.0000
18.7101	163.0000
18.7194	177.0000
18.7286	159.0000
18.7378	141.0000
18.7470	156.0000
18.7563	171.0000
18.7655	180.0000
18.7747	152.0000
18.7839	180.0000
18.7931	134.0000
18.8024	160.0000
18.8116	158.0000
18.8208	182.0000
18.8300	162.0000
18.8393	182.0000
18.8485	187.0000
18.8577	180.0000
18.8669	171.0000
18.8761	158.0000
18.8854	158.0000
18.8946	184.0000
18.9038	192.0000
18.9130	168.0000
18.9223	156.0000
18.9315	159.0000
18.9407	158.0000
18.9499	176.0000
18.9592	148.0000
18.9684	160.0000
18.9776	162.0000
18.9868	182.0000
18.9960	167.0000
19.0053	181.0000
19.0145	151.0000
19.0237	170.0000
19.0329	152.0000
19.0422	180.0000
19.0514	152.0000
19.0606	190.0000
19.0698	153.0000
19.0790	136.0000
19.0883	168.0000
19.0975	155.0000
19.1067	156.0000
19.1159	178.0000
19.1252	163.0000
19.1344	170.0000
19.1436	132.0000
19.1528	170.0000
19.1621	139.0000
19.1713	177.0000
19.1805	148.0000
19.1897	175.0000
19.1989	173.0000
19.2082	165.0000
19.2174	163.0000
19.2266	177.0000
19.2358	165.0000
19.2451	171.0000
19.2543	177.0000
19.2635	153.0000
19.2727	189.0000
19.2819	159.0000
19.2912	157.0000
19.3004	171.0000
19.3096	167.0000
19.3188	170.0000
19.3281	175.0000
19.3373	153.0000
19.3465	172.0000
19.3557	152.0000
19.3649	160.0000
19.3742	177.0000
19.3834	186.0000
19.3926	170.0000
19.4018	181.0000
19.4111	168.0000
19.4203	184.0000
19.4295	170.0000
19.4387	166.0000
19.4480	187.0000
19.4572	186.0000
19.4664	174.0000
19.4756	150.0000
19.4848	172.0000
19.4941	151.0000
19.5033	183.0000
19.5125	160.0000
19.5217	184.0000
19.5310	157.0000
19.5402	170.0000
19.5494	184.0000
19.5586	158.0000
19.5678	180.0000
19.5771	180.0000
19.5863	163.0000
19.5955	179.0000
19.6047	159.0000
19.6140	178.0000
19.6232	188.0000
19.6324	173.0000
19.6416	142.0000
19.6509	153.0000
19.6601	162.0000
19.6693	179.0000
19.6785	173.0000
19.6877	157.0000
19.6970	161.0000
19.7062	176.0000
19.7154	152.0000
19.7246	159.0000
19.7339	154.0000
19.7431	175.0000
19.7523	157.0000
19.7615	163.0000
19.7707	148.0000
19.7800	147.0000
19.7892	148.0000
19.7984	175.0000
19.8076	174.0000
19.8169	169.0000
19.8261	187.0000
19.8353	171.0000
19.8445	154.0000
19.8537	153.0000
19.8630	164.0000
19.8722	155.0000
19.8814	195.0000
19.8906	195.0000
19.8999	155.0000
19.9091	175.0000
19.9183	166.0000
19.9275	176.0000
19.9368	176.0000
19.9460	174.0000
19.9552	193.0000
19.9644	179.0000
19.9736	205.0000
19.9829	156.0000
19.9921	185.0000
20.0013	185.0000
20.0105	170.0000
20.0198	193.0000
20.0290	144.0000
20.0382	186.0000
20.0474	158.0000
20.0566	195.0000
20.0659	144.0000
20.0751	169.0000
20.0843	178.0000
20.0935	167.0000
20.1028	182.0000
20.1120	175.0000
20.1212	184.0000
20.1304	178.0000
20.1397	164.0000
20.1489	178.0000
20.1581	157.0000
20.1673	154.0000
20.1765	172.0000
20.1858	173.0000
20.1950	169.0000
20.2042	151.0000
20.2134	169.0000
20.2227	173.0000
20.2319	174.0000
20.2411	160.0000
20.2503	191.0000
20.2595	186.0000
20.2688	170.0000
20.2780	185.0000
20.2872	139.0000
20.2964	172.0000
20.3057	158.0000
20.3149	168.0000
20.3241	177.0000
20.3333	195.0000
20.3426	169.0000
20.3518	158.0000
20.3610	166.0000
20.3702	176.0000
20.3794	181.0000
20.3887	159.0000
20.3979	179.0000
20.4071	156.0000
20.4163	167.0000
20.4256	159.0000
20.4348	189.0000
20.4440	171.0000
20.4532	193.0000
20.4624	189.0000
20.4717	200.0000
20.4809	163.0000
20.4901	177.0000
20.4993	165.0000
20.5086	162.0000
20.5178	178.0000
20.5270	192.0000
20.5362	183.0000
20.5454	179.0000
20.5547	166.0000
20.5639	210.0000
20.5731	181.0000
20.5823	154.0000
20.5916	154.0000
20.6008	185.0000
20.6100	151.0000
20.6192	169.0000
20.6285	188.0000
20.6377	175.0000
20.6469	167.0000
20.6561	168.0000
20.6653	181.0000
20.6746	169.0000
20.6838	163.0000
20.6930	162.0000
20.7022	144.0000
20.7115	190.0000
20.7207	164.0000
20.7299	196.0000
20.7391	175.0000
20.7483	164.0000
20.7576	171.0000
20.7668	199.0000
20.7760	183.0000
20.7852	176.0000
20.7945	165.0000
20.8037	174.0000
20.8129	173.0000
20.8221	174.0000
20.8314	176.0000
20.8406	182.0000
20.8498	190.0000
20.8590	179.0000
20.8682	191.0000
20.8775	200.0000
20.8867	164.0000
20.8959	180.0000
20.9051	160.0000
20.9144	188.0000
20.9236	200.0000
20.9328	178.0000
20.9420	177.0000
20.9512	174.0000
20.9605	190.0000
20.9697	168.0000
20.9789	201.0000
20.9881	187.0000
20.9974	160.0000
21.0066	183.0000
21.0158	154.0000
21.0250	200.0000
21.0342	196.0000
21.0435	181.0000
21.0527	171.0000
21.0619	185.0000
21.0711	172.0000
21.0804	172.0000
21.0896	166.0000
21.0988	172.0000
21.1080	182.0000
21.1173	199.0000
21.1265	168.0000
21.1357	177.0000
21.1449	187.0000
21.1541	197.0000
21.1634	195.0000
21.1726	220.0000
21.1818	225.0000
21.1910	250.0000
21.2003	252.0000
21.2095	310.0000
21.2187	303.0000
21.2279	346.0000
21.2371	389.0000
21.2464	379.0000
21.2556	402.0000
21.2648	532.0000
21.2740	748.0000
21.2833	1023.0000
21.2925	1294.0000
21.3017	1133.0000
21.3109	675.0000
21.3202	428.0000
21.3294	295.0000
21.3386	266.0000
21.3478	300.0000
21.3570	289.0000
21.3663	312.0000
21.3755	303.0000
21.3847	345.0000
21.3939	401.0000
21.4032	541.0000
21.4124	703.0000
21.4216	730.0000
21.4308	645.0000
21.4400	374.0000
21.4493	283.0000
21.4585	225.0000
21.4677	200.0000
21.4769	199.0000
21.4862	211.0000
21.4954	201.0000
21.5046	157.0000
21.5138	176.0000
21.5231	192.0000
21.5323	171.0000
21.5415	171.0000
21.5507	190.0000
21.5599	172.0000
21.5692	191.0000
21.5784	211.0000
21.5876	158.0000
21.5968	158.0000
21.6061	155.0000
21.6153	161.0000
21.6245	188.0000
21.6337	203.0000
21.6429	182.0000
21.6522	187.0000
21.6614	175.0000
21.6706	184.0000
21.6798	164.0000
21.6891	172.0000
21.6983	181.0000
21.7075	152.0000
21.7167	172.0000
21.7259	161.0000
21.7352	168.0000
21.7444	177.0000
21.7536	188.0000
21.7628	144.0000
21.7721	163.0000
21.7813	180.0000
21.7905	171.0000
21.7997	173.0000
21.8090	169.0000
21.8182	174.0000
21.8274	178.0000
21.8366	152.0000
21.8458	164.0000
21.8551	167.0000
21.8643	168.0000
21.8735	174.0000
21.8827	181.0000
21.8920	168.0000
21.9012	183.0000
21.9104	191.0000
21.9196	168.0000
21.9288	191.0000
21.9381	160.0000
21.9473	161.0000
21.9565	181.0000
21.9657	164.0000
21.9750	167.0000
21.9842	172.0000
21.9934	162.0000
22.0026	153.0000
22.0119	183.0000
22.0211	163.0000
22.0303	175.0000
22.0395	163.0000
22.0487	186.0000
22.0580	160.0000
22.0672	175.0000
22.0764	174.0000
22.0856	189.0000
22.0949	162.0000
22.1041	157.0000
22.1133	180.0000
22.1225	152.0000
22.1317	153.0000
22.1410	163.0000
22.1502	186.0000
22.1594	174.0000
22.1686	171.0000
22.1779	150.0000
22.1871	156.0000
22.1963	168.0000
22.2055	172.0000
22.2147	140.0000
22.2240	156.0000
22.2332	176.0000
22.2424	173.0000
22.2516	161.0000
22.2609	180.0000
22.2701	141.0000
22.2793	172.0000
22.2885	176.0000
22.2978	192.0000
22.3070	169.0000
22.3162	189.0000
22.3254	162.0000
22.3346	174.0000
22.3439	145.0000
22.3531	167.0000
22.3623	171.0000
22.3715	179.0000
22.3808	178.0000
22.3900	173.0000
22.3992	153.0000
22.4084	143.0000
22.4176	171.0000
22.4269	160.0000
22.4361	152.0000
22.4453	174.0000
22.4545	175.0000
22.4638	172.0000
22.4730	176.0000
22.4822	156.0000
22.4914	149.0000
22.5007	166.0000
22.5099	151.0000
22.5191	165.0000
22.5283	182.0000
22.5375	141.0000
22.5468	173.0000
22.5560	169.0000
22.5652	164.0000
22.5744	157.0000
22.5837	149.0000
22.5929	144.0000
22.6021	153.0000
22.6113	177.0000
22.6205	156.0000
22.6298	174.0000
22.6390	154.0000
22.6482	172.0000
22.6574	148.0000
22.6667	161.0000
22.6759	178.0000
22.6851	170.0000
22.6943	166.0000
22.7036	163.0000
22.7128	168.0000
22.7220	160.0000
22.7312	150.0000
22.7404	169.0000
22.7497	156.0000
22.7589	146.0000
22.7681	169.0000
22.7773	130.0000
22.7866	150.0000
22.7958	172.0000
22.8050	171.0000
22.8142	190.0000
22.8234	170.0000
22.8327	164.0000
22.8419	147.0000
22.8511	226.0000
22.8603	181.0000
22.8696	175.0000
22.8788	161.0000
22.8880	166.0000
22.8972	157.0000
22.9064	183.0000
22.9157	167.0000
22.9249	155.0000
22.9341	152.0000
22.9433	164.0000
22.9526	149.0000
22.9618	176.0000
22.9710	171.0000
22.9802	171.0000
22.9895	175.0000
22.9987	171.0000
23.0079	146.0000
23.0171	189.0000
23.0263	192.0000
23.0356	151.0000
23.0448	178.0000
23.0540	156.0000
23.0632	159.0000
23.0725	164.0000
23.0817	172.0000
23.0909	160.0000
23.1001	163.0000
23.1093	167.0000
23.1186	152.0000
23.1278	187.0000
23.1370	157.0000
23.1462	148.0000
23.1555	157.0000
23.1647	176.0000
23.1739	176.0000
23.1831	154.0000
23.1924	158.0000
23.2016	152.0000
23.2108	169.0000
23.2200	171.0000
23.2292	165.0000
23.2385	160.0000
23.2477	148.0000
23.2569	194.0000
23.2661	185.0000
23.2754	146.0000
23.2846	177.0000
23.2938	139.0000
23.3030	185.0000
23.3122	159.0000
23.3215	151.0000
23.3307	171.0000
23.3399	156.0000
23.3491	159.0000
23.3584	142.0000
23.3676	165.0000
23.3768	155.0000
23.3860	165.0000
23.3952	173.0000
23.4045	182.0000
23.4137	162.0000
23.4229	145.0000
23.4321	177.0000
23.4414	161.0000
23.4506	185.0000
23.4598	184.0000
23.4690	174.0000
23.4783	167.0000
23.4875	160.0000
23.4967	178.0000
23.5059	157.0000
23.5151	176.0000
23.5244	153.0000
23.5336	186.0000
23.5428	167.0000
23.5520	161.0000
23.5613	154.0000
23.5705	178.0000
23.5797	150.0000
23.5889	162.0000
23.5981	137.0000
23.6074	164.0000
23.6166	161.0000
23.6258	149.0000
23.6350	149.0000
23.6443	179.0000
23.6535	178.0000
23.6627	177.0000
23.6719	172.0000
23.6812	180.0000
23.6904	139.0000
23.6996	173.0000
23.7088	153.0000
23.7180	174.0000
23.7273	164.0000
23.7365	189.0000
23.7457	163.0000
23.7549	147.0000
23.7642	170.0000
23.7734	164.0000
23.7826	179.0000
23.7918	141.0000
23.8010	185.0000
23.8103	159.0000
23.8195	173.0000
23.8287	151.0000
23.8379	182.0000
23.8472	171.0000
23.8564	161.0000
23.8656	160.0000
23.8748	136.0000
23.8841	177.0000
23.8933	194.0000
23.9025	173.0000
23.9117	164.0000
23.9209	166.0000
23.9302	148.0000
23.9394	150.0000
23.9486	168.0000
23.9578	179.0000
23.9671	176.0000
23.9763	154.0000
23.9855	154.0000
23.9947	170.0000
24.0039	155.0000
24.0132	167.0000
24.0224	172.0000
24.0316	173.0000
24.0408	160.0000
24.0501	163.0000
24.0593	164.0000
24.0685	155.0000
24.0777	154.0000
24.0869	170.0000
24.0962	156.0000
24.1054	171.0000
24.1146	171.0000
24.1238	162.0000
24.1331	148.0000
24.1423	169.0000
24.1515	178.0000
24.1607	169.0000
24.1700	180.0000
24.1792	151.0000
24.1884	182.0000
24.1976	175.0000
24.2068	152.0000
24.2161	146.0000
24.2253	153.0000
24.2345	147.0000
24.2437	162.0000
24.2530	148.0000
24.2622	160.0000
24.2714	157.0000
24.2806	137.0000
24.2898	169.0000
24.2991	130.0000
24.3083	172.0000
24.3175	188.0000
24.3267	174.0000
24.3360	156.0000
24.3452	163.0000
24.3544	154.0000
24.3636	157.0000
24.3729	162.0000
24.3821	182.0000
24.3913	184.0000
24.4005	151.0000
24.4097	173.0000
24.4190	165.0000
24.4282	163.0000
24.4374	196.0000
24.4466	161.0000
24.4559	168.0000
24.4651	158.0000
24.4743	189.0000
24.4835	170.0000
24.4927	162.0000
24.5020	158.0000
24.5112	156.0000
24.5204	149.0000
24.5296	140.0000
24.5389	173.0000
24.5481	163.0000
24.5573	178.0000
24.5665	136.0000
24.5757	148.0000
24.5850	159.0000
24.5942	160.0000
24.6034	152.0000
24.6126	167.0000
24.6219	158.0000
24.6311	189.0000
24.6403	143.0000
24.6495	158.0000
24.6588	165.0000
24.6680	141.0000
24.6772	167.0000
24.6864	178.0000
24.6956	169.0000
24.7049	168.0000
24.7141	170.0000
24.7233	152.0000
24.7325	183.0000
24.7418	151.0000
24.7510	160.0000
24.7602	176.0000
24.7694	150.0000
24.7786	197.0000
24.7879	198.0000
24.7971	185.0000
24.8063	165.0000
24.8155	156.0000
24.8248	175.0000
24.8340	181.0000
24.8432	140.0000
24.8524	171.0000
24.8617	183.0000
24.8709	152.0000
24.8801	156.0000
24.8893	149.0000
24.8985	188.0000
24.9078	181.0000
24.9170	162.0000
24.9262	176.0000
24.9354	151.0000
24.9447	169.0000
24.9539	160.0000
24.9631	139.0000
24.9723	181.0000
24.9815	161.0000
24.9908	172.0000
25.0000	157.0000
25.0092	171.0000
25.0184	171.0000
25.0277	137.0000
25.0369	171.0000
25.0461	173.0000
25.0553	167.0000
25.0646	180.0000
25.0738	167.0000
25.0830	178.0000
25.0922	143.0000
25.1014	160.0000
25.1107	190.0000
25.1199	174.0000
25.1291	182.0000
25.1383	187.0000
25.1476	156.0000
25.1568	148.0000
25.1660	191.0000
25.1752	154.0000
25.1844	178.0000
25.1937	163.0000
25.2029	140.0000
25.2121	152.0000
25.2213	170.0000
25.2306	160.0000
25.2398	150.0000
25.2490	180.0000
25.2582	146.0000
25.2674	174.0000
25.2767	160.0000
25.2859	160.0000
25.2951	204.0000
25.3043	182.0000
25.3136	157.0000
25.3228	167.0000
25.3320	150.0000
25.3412	169.0000
25.3505	169.0000
25.3597	152.0000
25.3689	139.0000
25.3781	145.0000
25.3873	147.0000
25.3966	169.0000
25.4058	153.0000
25.4150	162.0000
25.4242	165.0000
25.4335	171.0000
25.4427	189.0000
25.4519	169.0000
25.4611	191.0000
25.4703	180.0000
25.4796	162.0000
25.4888	179.0000
25.4980	158.0000
25.5072	169.0000
25.5165	174.0000
25.5257	178.0000
25.5349	185.0000
25.5441	165.0000
25.5534	154.0000
25.5626	180.0000
25.5718	193.0000
25.5810	164.0000
25.5902	165.0000
25.5995	159.0000
25.6087	164.0000
25.6179	173.0000
25.6271	147.0000
25.6364	168.0000
25.6456	204.0000
25.6548	159.0000
25.6640	160.0000
25.6732	171.0000
25.6825	160.0000
25.6917	178.0000
25.7009	165.0000
25.7101	175.0000
25.7194	168.0000
25.7286	161.0000
25.7378	159.0000
25.7470	166.0000
25.7562	141.0000
25.7655	169.0000
25.7747	166.0000
25.7839	166.0000
25.7931	155.0000
25.8024	167.0000
25.8116	167.0000
25.8208	173.0000
25.8300	186.0000
25.8393	166.0000
25.8485	162.0000
25.8577	175.0000
25.8669	158.0000
25.8761	176.0000
25.8854	183.0000
25.8946	168.0000
25.9038	171.0000
25.9130	173.0000
25.9223	180.0000
25.9315	170.0000
25.9407	194.0000
25.9499	164.0000
25.9591	175.0000
25.9684	191.0000
25.9776	159.0000
25.9868	165.0000
25.9960	164.0000
26.0053	167.0000
26.0145	155.0000
26.0237	210.0000
26.0329	177.0000
26.0422	179.0000
26.0514	154.0000
26.0606	178.0000
26.0698	180.0000
26.0790	184.0000
26.0883	182.0000
26.0975	157.0000
26.1067	185.0000
26.1159	170.0000
26.1252	162.0000
26.1344	164.0000
26.1436	180.0000
26.1528	160.0000
26.1620	170.0000
26.1713	180.0000
26.1805	169.0000
26.1897	188.0000
26.1989	192.0000
26.2082	177.0000
26.2174	155.0000
26.2266	197.0000
26.2358	179.0000
26.2451	182.0000
26.2543	157.0000
26.2635	165.0000
26.2727	194.0000
26.2819	183.0000
26.2912	159.0000
26.3004	168.0000
26.3096	176.0000
26.3188	184.0000
26.3281	173.0000
26.3373	173.0000
26.3465	169.0000
26.3557	160.0000
26.3649	196.0000
26.3742	192.0000
26.3834	165.0000
26.3926	182.0000
26.4018	171.0000
26.4111	189.0000
26.4203	170.0000
26.4295	158.0000
26.4387	186.0000
26.4479	164.0000
26.4572	147.0000
26.4664	161.0000
26.4756	174.0000
26.4848	178.0000
26.4941	165.0000
26.5033	208.0000
26.5125	159.0000
26.5217	176.0000
26.5310	184.0000
26.5402	177.0000
26.5494	183.0000
26.5586	203.0000
26.5678	170.0000
26.5771	160.0000
26.5863	185.0000
26.5955	191.0000
26.6047	192.0000
26.6140	181.0000
26.6232	160.0000
26.6324	159.0000
26.6416	184.0000
26.6508	155.0000
26.6601	178.0000
26.6693	176.0000
26.6785	150.0000
26.6877	152.0000
26.6970	178.0000
26.7062	199.0000
26.7154	153.0000
26.7246	164.0000
26.7339	182.0000
26.7431	178.0000
26.7523	181.0000
26.7615	186.0000
26.7707	163.0000
26.7800	172.0000
26.7892	199.0000
26.7984	192.0000
26.8076	200.0000
26.8169	187.0000
26.8261	193.0000
26.8353	184.0000
26.8445	159.0000
26.8537	181.0000
26.8630	179.0000
26.8722	186.0000
26.8814	178.0000
26.8906	184.0000
26.8999	187.0000
26.9091	184.0000
26.9183	178.0000
26.9275	193.0000
26.9367	206.0000
26.9460	169.0000
26.9552	188.0000
26.9644	181.0000
26.9736	164.0000
26.9829	189.0000
26.9921	161.0000
27.0013	181.0000
27.0105	176.0000
27.0198	180.0000
27.0290	171.0000
27.0382	166.0000
27.0474	195.0000
27.0566	195.0000
27.0659	187.0000
27.0751	182.0000
27.0843	216.0000
27.0935	152.0000
27.1028	175.0000
27.1120	163.0000
27.1212	183.0000
27.1304	185.0000
27.1396	194.0000
27.1489	193.0000
27.1581	205.0000
27.1673	156.0000
27.1765	158.0000
27.1858	183.0000
27.1950	185.0000
27.2042	173.0000
27.2134	171.0000
27.2227	163.0000
27.2319	188.0000
27.2411	177.0000
27.2503	210.0000
27.2595	198.0000
27.2688	197.0000
27.2780	175.0000
27.2872	189.0000
27.2964	192.0000
27.3057	174.0000
27.3149	183.0000
27.3241	199.0000
27.3333	167.0000
27.3425	185.0000
27.3518	182.0000
27.3610	183.0000
27.3702	191.0000
27.3794	179.0000
27.3887	183.0000
27.3979	184.0000
27.4071	179.0000
27.4163	200.0000
27.4256	200.0000
27.4348	187.0000
27.4440	199.0000
27.4532	201.0000
27.4624	167.0000
27.4717	182.0000
27.4809	194.0000
27.4901	170.0000
27.4993	219.0000
27.5086	164.0000
27.5178	165.0000
27.5270	189.0000
27.5362	188.0000
27.5454	177.0000
27.5547	188.0000
27.5639	164.0000
27.5731	170.0000
27.5823	192.0000
27.5916	177.0000
27.6008	201.0000
27.6100	207.0000
27.6192	172.0000
27.6284	157.0000
27.6377	197.0000
27.6469	191.0000
27.6561	187.0000
27.6653	170.0000
27.6746	167.0000
27.6838	201.0000
27.6930	194.0000
27.7022	171.0000
27.7115	188.0000
27.7207	163.0000
27.7299	176.0000
27.7391	199.0000
27.7483	175.0000
27.7576	184.0000
27.7668	169.0000
27.7760	208.0000
27.7852	185.0000
27.7945	205.0000
27.8037	184.0000
27.8129	181.0000
27.8221	169.0000
27.8313	166.0000
27.8406	171.0000
27.8498	185.0000
27.8590	192.0000
27.8682	205.0000
27.8775	185.0000
27.8867	179.0000
27.8959	207.0000
27.9051	192.0000
27.9144	188.0000
27.9236	166.0000
27.9328	189.0000
27.9420	202.0000
27.9512	183.0000
27.9605	176.0000
27.9697	199.0000
27.9789	184.0000
27.9881	179.0000
27.9974	178.0000
28.0066	202.0000
28.0158	178.0000
28.0250	198.0000
28.0342	191.0000
28.0435	188.0000
28.0527	158.0000
28.0619	193.0000
28.0711	202.0000
28.0804	212.0000
28.0896	194.0000
28.0988	177.0000
28.1080	204.0000
28.1172	178.0000
28.1265	192.0000
28.1357	159.0000
28.1449	195.0000
28.1541	201.0000
28.1634	193.0000
28.1726	227.0000
28.1818	199.0000
28.1910	193.0000
28.2003	194.0000
28.2095	174.0000
28.2187	168.0000
28.2279	208.0000
28.2371	178.0000
28.2464	201.0000
28.2556	198.0000
28.2648	155.0000
28.2740	178.0000
28.2833	201.0000
28.2925	189.0000
28.3017	193.0000
28.3109	214.0000
28.3201	176.0000
28.3294	192.0000
28.3386	199.0000
28.3478	182.0000
28.3570	205.0000
28.3663	202.0000
28.3755	183.0000
28.3847	196.0000
28.3939	191.0000
28.4032	184.0000
28.4124	185.0000
28.4216	203.0000
28.4308	172.0000
28.4400	183.0000
28.4493	185.0000
28.4585	204.0000
28.4677	195.0000
28.4769	193.0000
28.4862	190.0000
28.4954	208.0000
28.5046	181.0000
28.5138	199.0000
28.5230	190.0000
28.5323	173.0000
28.5415	186.0000
28.5507	183.0000
28.5599	178.0000
28.5692	183.0000
28.5784	180.0000
28.5876	215.0000
28.5968	172.0000
28.6061	207.0000
28.6153	201.0000
28.6245	209.0000
28.6337	176.0000
28.6429	187.0000
28.6522	206.0000
28.6614	187.0000
28.6706	187.0000
28.6798	201.0000
28.6891	180.0000
28.6983	182.0000
28.7075	208.0000
28.7167	207.0000
28.7259	169.0000
28.7352	207.0000
28.7444	196.0000
28.7536	200.0000
28.7628	199.0000
28.7721	207.0000
28.7813	191.0000
28.7905	184.0000
28.7997	180.0000
28.8089	191.0000
28.8182	206.0000
28.8274	189.0000
28.8366	177.0000
28.8458	184.0000
28.8551	160.0000
28.8643	196.0000
28.8735	173.0000
28.8827	199.0000
28.8920	196.0000
28.9012	172.0000
28.9104	177.0000
28.9196	192.0000
28.9288	190.0000
28.9381	195.0000
28.9473	183.0000
28.9565	186.0000
28.9657	185.0000
28.9750	193.0000
28.9842	185.0000
28.9934	205.0000
29.0026	214.0000
29.0118	187.0000
29.0211	170.0000
29.0303	211.0000
29.0395	182.0000
29.0487	162.0000
29.0580	209.0000
29.0672	172.0000
29.0764	179.0000
29.0856	187.0000
29.0949	190.0000
29.1041	192.0000
29.1133	180.0000
29.1225	211.0000
29.1317	193.0000
29.1410	174.0000
29.1502	184.0000
29.1594	163.0000
29.1686	167.0000
29.1779	175.0000
29.1871	190.0000
29.1963	197.0000
29.2055	211.0000
29.2147	218.0000
29.2240	173.0000
29.2332	208.0000
29.2424	166.0000
29.2516	174.0000
29.2609	186.0000
29.2701	186.0000
29.2793	191.0000
29.2885	173.0000
29.2977	190.0000
29.3070	186.0000
29.3162	199.0000
29.3254	189.0000
29.3346	202.0000
29.3439	187.0000
29.3531	168.0000
29.3623	199.0000
29.3715	207.0000
29.3808	178.0000
29.3900	179.0000
29.3992	184.0000
29.4084	178.0000
29.4176	205.0000
29.4269	169.0000
29.4361	158.0000
29.4453	180.0000
29.4545	221.0000
29.4638	182.0000
29.4730	188.0000
29.4822	201.0000
29.4914	204.0000
29.5006	197.0000
29.5099	182.0000
29.5191	192.0000
29.5283	184.0000
29.5375	195.0000
29.5468	193.0000
29.5560	186.0000
29.5652	199.0000
29.5744	190.0000
29.5837	207.0000
29.5929	193.0000
29.6021	199.0000
29.6113	178.0000
29.6205	198.0000
29.6298	175.0000
29.6390	203.0000
29.6482	179.0000
29.6574	184.0000
29.6667	189.0000
29.6759	161.0000
29.6851	181.0000
29.6943	171.0000
29.7035	183.0000
29.7128	205.0000
29.7220	177.0000
29.7312	178.0000
29.7404	192.0000
29.7497	189.0000
29.7589	211.0000
29.7681	168.0000
29.7773	189.0000
29.7866	196.0000
29.7958	193.0000
29.8050	207.0000
29.8142	188.0000
29.8234	200.0000
29.8327	187.0000
29.8419	189.0000
29.8511	206.0000
29.8603	200.0000
29.8696	180.0000
29.8788	206.0000
29.8880	207.0000
29.8972	193.0000
29.9064	185.0000
29.9157	176.0000
29.9249	207.0000
29.9341	167.0000
29.9433	181.0000
29.9526	177.0000
29.9618	170.0000
29.9710	194.0000
29.9802	194.0000
29.9894	188.0000
29.9987	195.0000
30.0079	199.0000
30.0171	177.0000
30.0263	180.0000
30.0356	209.0000
30.0448	208.0000
30.0540	189.0000
30.0632	184.0000
30.0725	175.0000
30.0817	193.0000
30.0909	209.0000
30.1001	187.0000
30.1093	174.0000
30.1186	181.0000
30.1278	171.0000
30.1370	185.0000
30.1462	192.0000
30.1555	201.0000
30.1647	193.0000
30.1739	171.0000
30.1831	198.0000
30.1923	176.0000
30.2016	178.0000
30.2108	214.0000
30.2200	186.0000
30.2292	165.0000
30.2385	194.0000
30.2477	198.0000
30.2569	194.0000
30.2661	194.0000
30.2754	180.0000
30.2846	170.0000
30.2938	181.0000
30.3030	170.0000
30.3122	187.0000
30.3215	175.0000
30.3307	193.0000
30.3399	185.0000
30.3491	238.0000
30.3584	167.0000
30.3676	199.0000
30.3768	197.0000
30.3860	189.0000
30.3952	191.0000
30.4045	189.0000
30.4137	184.0000
30.4229	174.0000
30.4321	212.0000
30.4414	175.0000
30.4506	170.0000
30.4598	211.0000
30.4690	168.0000
30.4782	184.0000
30.4875	186.0000
30.4967	184.0000
30.5059	191.0000
30.5151	212.0000
30.5244	206.0000
30.5336	194.0000
30.5428	188.0000
30.5520	200.0000
30.5613	192.0000
30.5705	172.0000
30.5797	183.0000
30.5889	157.0000
30.5981	201.0000
30.6074	194.0000
30.6166	172.0000
30.6258	181.0000
30.6350	188.0000
30.6443	176.0000
30.6535	187.0000
30.6627	206.0000
30.6719	193.0000
30.6811	184.0000
30.6904	174.0000
30.6996	172.0000
30.7088	190.0000
30.7180	190.0000
30.7273	186.0000
30.7365	182.0000
30.7457	171.0000
30.7549	188.0000
30.7642	180.0000
30.7734	161.0000
30.7826	167.0000
30.7918	204.0000
30.8010	196.0000
30.8103	179.0000
30.8195	180.0000
30.8287	210.0000
30.8379	180.0000
30.8472	168.0000
30.8564	186.0000
30.8656	174.0000
30.8748	188.0000
30.8840	169.0000
30.8933	195.0000
30.9025	166.0000
30.9117	198.0000
30.9209	169.0000
30.9302	203.0000
30.9394	201.0000
30.9486	202.0000
30.9578	182.0000
30.9671	198.0000
30.9763	181.0000
30.9855	188.0000
30.9947	167.0000
31.0039	226.0000
31.0132	194.0000
31.0224	164.0000
31.0316	187.0000
31.0408	183.0000
31.0501	174.0000
31.0593	186.0000
31.0685	191.0000
31.0777	165.0000
31.0869	195.0000
31.0962	197.0000
31.1054	192.0000
31.1146	185.0000
31.1238	153.0000
31.1331	188.0000
31.1423	235.0000
31.1515	174.0000
31.1607	164.0000
31.1699	197.0000
31.1792	197.0000
31.1884	194.0000
31.1976	178.0000
31.2068	149.0000
31.2161	193.0000
31.2253	184.0000
31.2345	171.0000
31.2437	190.0000
31.2530	204.0000
31.2622	192.0000
31.2714	163.0000
31.2806	158.0000
31.2898	181.0000
31.2991	172.0000
31.3083	170.0000
31.3175	203.0000
31.3267	190.0000
31.3360	199.0000
31.3452	196.0000
31.3544	165.0000
31.3636	185.0000
31.3728	215.0000
31.3821	180.0000
31.3913	186.0000
31.4005	183.0000
31.4097	186.0000
31.4190	198.0000
31.4282	189.0000
31.4374	145.0000
31.4466	188.0000
31.4559	181.0000
31.4651	166.0000
31.4743	207.0000
31.4835	194.0000
31.4927	173.0000
31.5020	183.0000
31.5112	174.0000
31.5204	191.0000
31.5296	176.0000
31.5389	209.0000
31.5481	207.0000
31.5573	199.0000
31.5665	168.0000
31.5757	189.0000
31.5850	193.0000
31.5942	183.0000
31.6034	187.0000
31.6126	201.0000
31.6219	161.0000
31.6311	166.0000
31.6403	191.0000
31.6495	198.0000
31.6587	174.0000
31.6680	167.0000
31.6772	190.0000
31.6864	151.0000
31.6956	195.0000
31.7049	197.0000
31.7141	189.0000
31.7233	181.0000
31.7325	192.0000
31.7418	183.0000
31.7510	207.0000
31.7602	194.0000
31.7694	196.0000
31.7786	184.0000
31.7879	207.0000
31.7971	165.0000
31.8063	171.0000
31.8155	199.0000
31.8248	181.0000
31.8340	203.0000
31.8432	180.0000
31.8524	166.0000
31.8616	169.0000
31.8709	188.0000
31.8801	179.0000
31.8893	205.0000
31.8985	177.0000
31.9078	187.0000
31.9170	187.0000
31.9262	186.0000
31.9354	177.0000
31.9447	182.0000
31.9539	169.0000
31.9631	181.0000
31.9723	171.0000
31.9815	185.0000
31.9908	224.0000
32.0000	206.0000
32.0092	176.0000
32.0184	195.0000
32.0277	188.0000
32.0369	208.0000
32.0461	179.0000
32.0553	205.0000
32.0645	186.0000
32.0738	199.0000
32.0830	172.0000
32.0922	166.0000
32.1014	178.0000
32.1107	190.0000
32.1199	174.0000
32.1291	176.0000
32.1383	166.0000
32.1476	192.0000
32.1568	215.0000
32.1660	200.0000
32.1752	172.0000
32.1844	214.0000
32.1937	201.0000
32.2029	186.0000
32.2121	176.0000
32.2213	204.0000
32.2306	171.0000
32.2398	179.0000
32.2490	202.0000
32.2582	196.0000
32.2674	210.0000
32.2767	200.0000
32.2859	196.0000
32.2951	171.0000
32.3043	212.0000
32.3136	179.0000
32.3228	211.0000
32.3320	172.0000
32.3412	204.0000
32.3504	221.0000
32.3597	192.0000
32.3689	192.0000
32.3781	181.0000
32.3873	176.0000
32.3966	170.0000
32.4058	199.0000
32.4150	167.0000
32.4242	172.0000
32.4335	188.0000
32.4427	212.0000
32.4519	179.0000
32.4611	209.0000
32.4703	174.0000
32.4796	170.0000
32.4888	191.0000
32.4980	182.0000
32.5072	185.0000
32.5165	160.0000
32.5257	180.0000
32.5349	189.0000
32.5441	179.0000
32.5533	197.0000
32.5626	186.0000
32.5718	195.0000
32.5810	198.0000
32.5902	186.0000
32.5995	177.0000
32.6087	179.0000
32.6179	180.0000
32.6271	197.0000
32.6364	162.0000
32.6456	186.0000
32.6548	193.0000
32.6640	203.0000
32.6732	198.0000
32.6825	197.0000
32.6917	189.0000
32.7009	197.0000
32.7101	215.0000
32.7194	197.0000
32.7286	170.0000
32.7378	190.0000
32.7470	194.0000
32.7562	189.0000
32.7655	189.0000
32.7747	178.0000
32.7839	193.0000
32.7931	191.0000
32.8024	173.0000
32.8116	169.0000
32.8208	194.0000
32.8300	208.0000
32.8392	203.0000
32.8485	181.0000
32.8577	200.0000
32.8669	196.0000
32.8761	165.0000
32.8854	192.0000
32.8946	234.0000
32.9038	201.0000
32.9130	189.0000
32.9223	201.0000
32.9315	201.0000
32.9407	211.0000
32.9499	186.0000
32.9591	175.0000
32.9684	209.0000
32.9776	188.0000
32.9868	203.0000
32.9960	189.0000
33.0053	191.0000
33.0145	196.0000
33.0237	239.0000
33.0329	214.0000
33.0421	230.0000
33.0514	320.0000
33.0606	321.0000
33.0698	397.0000
33.0790	367.0000
33.0883	328.0000
33.0975	282.0000
33.1067	246.0000
33.1159	222.0000
33.1252	191.0000
33.1344	218.0000
33.1436	211.0000
33.1528	197.0000
33.1620	212.0000
33.1713	200.0000
33.1805	193.0000
33.1897	197.0000
33.1989	205.0000
33.2082	183.0000
33.2174	207.0000
33.2266	202.0000
33.2358	208.0000
33.2450	216.0000
33.2543	267.0000
33.2635	279.0000
33.2727	286.0000
33.2819	283.0000
33.2912	245.0000
33.3004	230.0000
33.3096	209.0000
33.3188	221.0000
33.3281	206.0000
33.3373	179.0000
33.3465	173.0000
33.3557	193.0000
33.3649	191.0000
33.3742	186.0000
33.3834	180.0000
33.3926	206.0000
33.4018	197.0000
33.4111	178.0000
33.4203	200.0000
33.4295	181.0000
33.4387	193.0000
33.4479	172.0000
33.4572	200.0000
33.4664	193.0000
33.4756	179.0000
33.4848	191.0000
33.4941	182.0000
33.5033	201.0000
33.5125	193.0000
33.5217	195.0000
33.5309	199.0000
33.5402	197.0000
33.5494	197.0000
33.5586	204.0000
33.5678	184.0000
33.5771	194.0000
33.5863	186.0000
33.5955	214.0000
33.6047	179.0000
33.6140	192.0000
33.6232	187.0000
33.6324	166.0000
33.6416	181.0000
33.6508	183.0000
33.6601	211.0000
33.6693	191.0000
33.6785	186.0000
33.6877	182.0000
33.6970	167.0000
33.7062	176.0000
33.7154	178.0000
33.7246	190.0000
33.7338	178.0000
33.7431	177.0000
33.7523	177.0000
33.7615	179.0000
33.7707	154.0000
33.7800	195.0000
33.7892	193.0000
33.7984	188.0000
33.8076	198.0000
33.8169	205.0000
33.8261	167.0000
33.8353	192.0000
33.8445	198.0000
33.8537	171.0000
33.8630	201.0000
33.8722	163.0000
33.8814	215.0000
33.8906	221.0000
33.8999	216.0000
33.9091	183.0000
33.9183	201.0000
33.9275	174.0000
33.9367	211.0000
33.9460	195.0000
33.9552	173.0000
33.9644	179.0000
33.9736	172.0000
33.9829	189.0000
33.9921	182.0000
34.0013	172.0000
34.0105	159.0000
34.0197	178.0000
34.0290	188.0000
34.0382	204.0000
34.0474	195.0000
34.0566	194.0000
34.0659	176.0000
34.0751	180.0000
34.0843	170.0000
34.0935	172.0000
34.1028	169.0000
34.1120	155.0000
34.1212	171.0000
34.1304	188.0000
34.1396	182.0000
34.1489	185.0000
34.1581	192.0000
34.1673	168.0000
34.1765	172.0000
34.1858	198.0000
34.1950	165.0000
34.2042	170.0000
34.2134	170.0000
34.2226	156.0000
34.2319	192.0000
34.2411	174.0000
34.2503	166.0000
34.2595	173.0000
34.2688	168.0000
34.2780	152.0000
34.2872	156.0000
34.2964	196.0000
34.3057	168.0000
34.3149	183.0000
34.3241	184.0000
34.3333	175.0000
34.3425	178.0000
34.3518	168.0000
34.3610	191.0000
34.3702	182.0000
34.3794	163.0000
34.3887	174.0000
34.3979	164.0000
34.4071	176.0000
34.4163	195.0000
34.4255	169.0000
34.4348	177.0000
34.4440	191.0000
34.4532	152.0000
34.4624	198.0000
34.4717	176.0000
34.4809	172.0000
34.4901	172.0000
34.4993	182.0000
34.5086	177.0000
34.5178	191.0000
34.5270	178.0000
34.5362	180.0000
34.5454	160.0000
34.5547	179.0000
34.5639	174.0000
34.5731	173.0000
34.5823	176.0000
34.5916	198.0000
34.6008	180.0000
34.6100	184.0000
34.6192	169.0000
34.6284	172.0000
34.6377	166.0000
34.6469	155.0000
34.6561	178.0000
34.6653	171.0000
34.6746	177.0000
34.6838	187.0000
34.6930	173.0000
34.7022	148.0000
34.7114	198.0000
34.7207	170.0000
34.7299	177.0000
34.7391	177.0000
34.7483	167.0000
34.7576	170.0000
34.7668	190.0000
34.7760	160.0000
34.7852	163.0000
34.7945	183.0000
34.8037	170.0000
34.8129	175.0000
34.8221	167.0000
34.8313	178.0000
34.8406	176.0000
34.8498	164.0000
34.8590	175.0000
34.8682	172.0000
34.8775	160.0000
34.8867	163.0000
34.8959	191.0000
34.9051	148.0000
34.9143	174.0000
34.9236	148.0000
34.9328	167.0000
34.9420	172.0000
34.9512	147.0000
34.9605	157.0000
34.9697	177.0000
34.9789	175.0000
34.9881	165.0000
34.9974	157.0000
35.0066	168.0000
35.0158	164.0000
35.0250	152.0000
35.0342	144.0000
35.0435	150.0000
35.0527	157.0000
35.0619	173.0000
35.0711	169.0000
35.0804	148.0000
35.0896	166.0000
35.0988	135.0000
35.1080	183.0000
35.1172	150.0000
35.1265	163.0000
35.1357	151.0000
35.1449	161.0000
35.1541	152.0000
35.1634	141.0000
35.1726	177.0000
35.1818	180.0000
35.1910	137.0000
35.2002	128.0000
35.2095	164.0000
35.2187	159.0000
35.2279	165.0000
35.2371	161.0000
35.2464	151.0000
35.2556	152.0000
35.2648	168.0000
35.2740	146.0000
35.2833	177.0000
35.2925	160.0000
35.3017	160.0000
35.3109	170.0000
35.3201	183.0000
35.3294	151.0000
35.3386	132.0000
35.3478	149.0000
35.3570	138.0000
35.3663	154.0000
35.3755	159.0000
35.3847	147.0000
35.3939	152.0000
35.4031	153.0000
35.4124	151.0000
35.4216	169.0000
35.4308	160.0000
35.4400	156.0000
35.4493	147.0000
35.4585	153.0000
35.4677	160.0000
35.4769	165.0000
35.4862	162.0000
35.4954	152.0000
35.5046	133.0000
35.5138	154.0000
35.5230	154.0000
35.5323	140.0000
35.5415	153.0000
35.5507	140.0000
35.5599	150.0000
35.5692	148.0000
35.5784	156.0000
35.5876	175.0000
35.5968	145.0000
35.6060	138.0000
35.6153	138.0000
35.6245	164.0000
35.6337	138.0000
35.6429	153.0000
35.6522	162.0000
35.6614	159.0000
35.6706	144.0000
35.6798	160.0000
35.6891	152.0000
35.6983	134.0000
35.7075	140.0000
35.7167	162.0000
35.7259	144.0000
35.7352	136.0000
35.7444	132.0000
35.7536	132.0000
35.7628	151.0000
35.7721	132.0000
35.7813	142.0000
35.7905	148.0000
35.7997	132.0000
35.8089	142.0000
35.8182	157.0000
35.8274	138.0000
35.8366	119.0000
35.8458	145.0000
35.8551	134.0000
35.8643	163.0000
35.8735	155.0000
35.8827	136.0000
35.8919	143.0000
35.9012	158.0000
35.9104	149.0000
35.9196	141.0000
35.9288	146.0000
35.9381	143.0000
35.9473	113.0000
35.9565	146.0000
35.9657	145.0000
35.9750	119.0000
35.9842	131.0000
35.9934	147.0000
36.0026	115.0000
36.0118	142.0000
36.0211	118.0000
36.0303	141.0000
36.0395	128.0000
36.0487	157.0000
36.0580	107.0000
36.0672	137.0000
36.0764	147.0000
36.0856	138.0000
36.0948	119.0000
36.1041	135.0000
36.1133	128.0000
36.1225	151.0000
36.1317	133.0000
36.1410	115.0000
36.1502	144.0000
36.1594	140.0000
36.1686	122.0000
36.1779	128.0000
36.1871	116.0000
36.1963	133.0000
36.2055	138.0000
36.2147	112.0000
36.2240	140.0000
36.2332	115.0000
36.2424	133.0000
36.2516	112.0000
36.2609	122.0000
36.2701	129.0000
36.2793	111.0000
36.2885	123.0000
36.2977	148.0000
36.3070	143.0000
36.3162	140.0000
36.3254	143.0000
36.3346	135.0000
36.3439	138.0000
36.3531	122.0000
36.3623	130.0000
36.3715	117.0000
36.3807	132.0000
36.3900	123.0000
36.3992	115.0000
36.4084	104.0000
36.4176	137.0000
36.4269	109.0000
36.4361	131.0000
36.4453	143.0000
36.4545	123.0000
36.4638	126.0000
36.4730	130.0000
36.4822	126.0000
36.4914	137.0000
36.5006	122.0000
36.5099	149.0000
36.5191	133.0000
36.5283	115.0000
36.5375	128.0000
36.5468	130.0000
36.5560	117.0000
36.5652	106.0000
36.5744	126.0000
36.5836	131.0000
36.5929	150.0000
36.6021	145.0000
36.6113	121.0000
36.6205	106.0000
36.6298	129.0000
36.6390	124.0000
36.6482	101.0000
36.6574	91.0000
36.6667	118.0000
36.6759	133.0000
36.6851	115.0000
36.6943	133.0000
36.7035	129.0000
36.7128	144.0000
36.7220	113.0000
36.7312	131.0000
36.7404	102.0000
36.7497	126.0000
36.7589	128.0000
36.7681	102.0000
36.7773	115.0000
36.7865	119.0000
36.7958	123.0000
36.8050	112.0000
36.8142	122.0000
36.8234	89.0000
36.8327	124.0000
36.8419	112.0000
36.8511	95.0000
36.8603	127.0000
36.8696	111.0000
36.8788	130.0000
36.8880	108.0000
36.8972	105.0000
36.9064	124.0000
36.9157	123.0000
36.9249	107.0000
36.9341	130.0000
36.9433	90.0000
36.9526	123.0000
36.9618	101.0000
36.9710	120.0000
36.9802	104.0000
36.9894	116.0000
36.9987	126.0000
37.0079	108.0000
37.0171	112.0000
37.0263	127.0000
37.0356	136.0000
37.0448	115.0000
37.0540	119.0000
37.0632	116.0000
37.0724	99.0000
37.0817	111.0000
37.0909	104.0000
37.1001	114.0000
37.1093	108.0000
37.1186	117.0000
37.1278	117.0000
37.1370	95.0000
37.1462	111.0000
37.1555	102.0000
37.1647	84.0000
37.1739	114.0000
37.1831	123.0000
37.1923	110.0000
37.2016	115.0000
37.2108	91.0000
37.2200	97.0000
37.2292	105.0000
37.2385	124.0000
37.2477	127.0000
37.2569	118.0000
37.2661	94.0000
37.2753	147.0000
37.2846	146.0000
37.2938	166.0000
37.3030	207.0000
37.3122	196.0000
37.3215	222.0000
37.3307	203.0000
37.3399	159.0000
37.3491	131.0000
37.3584	129.0000
37.3676	127.0000
37.3768	124.0000
37.3860	115.0000
37.3952	120.0000
37.4045	108.0000
37.4137	106.0000
37.4229	114.0000
37.4321	107.0000
37.4414	103.0000
37.4506	111.0000
37.4598	122.0000
37.4690	115.0000
37.4782	129.0000
37.4875	114.0000
37.4967	115.0000
37.5059	116.0000
37.5151	127.0000
37.5244	164.0000
37.5336	152.0000
37.5428	129.0000
37.5520	145.0000
37.5612	157.0000
37.5705	141.0000
37.5797	116.0000
37.5889	118.0000
37.5981	136.0000
37.6074	109.0000
37.6166	117.0000
37.6258	117.0000
37.6350	96.0000
37.6443	106.0000
37.6535	90.0000
37.6627	99.0000
37.6719	133.0000
37.6811	96.0000
37.6904	99.0000
37.6996	97.0000
37.7088	103.0000
37.7180	95.0000
37.7273	109.0000
37.7365	117.0000
37.7457	95.0000
37.7549	103.0000
37.7641	108.0000
37.7734	101.0000
37.7826	90.0000
37.7918	94.0000
37.8010	112.0000
37.8103	112.0000
37.8195	102.0000
37.8287	95.0000
37.8379	98.0000
37.8472	116.0000
37.8564	91.0000
37.8656	109.0000
37.8748	92.0000
37.8840	102.0000
37.8933	117.0000
37.9025	111.0000
37.9117	88.0000
37.9209	94.0000
37.9302	90.0000
37.9394	78.0000
37.9486	108.0000
37.9578	95.0000
37.9670	72.0000
37.9763	105.0000
37.9855	105.0000
37.9947	99.0000
38.0039	109.0000
38.0132	100.0000
38.0224	106.0000
38.0316	84.0000
38.0408	95.0000
38.0501	100.0000
38.0593	97.0000
38.0685	107.0000
38.0777	93.0000
38.0869	101.0000
38.0962	102.0000
38.1054	94.0000
38.1146	106.0000
38.1238	85.0000
38.1331	105.0000
38.1423	135.0000
38.1515	112.0000
38.1607	99.0000
38.1699	111.0000
38.1792	98.0000
38.1884	103.0000
38.1976	124.0000
38.2068	113.0000
38.2161	84.0000
38.2253	105.0000
38.2345	105.0000
38.2437	121.0000
38.2529	104.0000
38.2622	98.0000
38.2714	105.0000
38.2806	104.0000
38.2898	92.0000
38.2991	100.0000
38.3083	100.0000
38.3175	90.0000
38.3267	110.0000
38.3360	98.0000
38.3452	98.0000
38.3544	106.0000
38.3636	103.0000
38.3728	101.0000
38.3821	97.0000
38.3913	98.0000
38.4005	92.0000
38.4097	82.0000
38.4190	96.0000
38.4282	97.0000
38.4374	106.0000
38.4466	96.0000
38.4558	95.0000
38.4651	90.0000
38.4743	98.0000
38.4835	106.0000
38.4927	95.0000
38.5020	101.0000
38.5112	124.0000
38.5204	100.0000
38.5296	96.0000
38.5389	114.0000
38.5481	104.0000
38.5573	96.0000
38.5665	104.0000
38.5757	103.0000
38.5850	100.0000
38.5942	90.0000
38.6034	102.0000
38.6126	103.0000
38.6219	90.0000
38.6311	98.0000
38.6403	97.0000
38.6495	108.0000
38.6587	113.0000
38.6680	99.0000
38.6772	99.0000
38.6864	116.0000
38.6956	113.0000
38.7049	94.0000
38.7141	118.0000
38.7233	94.0000
38.7325	88.0000
38.7417	99.0000
38.7510	89.0000
38.7602	93.0000
38.7694	95.0000
38.7786	101.0000
38.7879	81.0000
38.7971	88.0000
38.8063	114.0000
38.8155	97.0000
38.8248	98.0000
38.8340	97.0000
38.8432	101.0000
38.8524	100.0000
38.8616	78.0000
38.8709	107.0000
38.8801	116.0000
38.8893	101.0000
38.8985	95.0000
38.9078	98.0000
38.9170	105.0000
38.9262	95.0000
38.9354	101.0000
38.9446	99.0000
38.9539	90.0000
38.9631	112.0000
38.9723	76.0000
38.9815	89.0000
38.9908	103.0000
39.0000	91.0000
39.0092	99.0000
39.0184	92.0000
39.0277	99.0000
39.0369	84.0000
39.0461	100.0000
39.0553	94.0000
39.0645	96.0000
39.0738	105.0000
39.0830	104.0000
39.0922	96.0000
39.1014	100.0000
39.1107	98.0000
39.1199	103.0000
39.1291	94.0000
39.1383	87.0000
39.1475	102.0000
39.1568	76.0000
39.1660	110.0000
39.1752	98.0000
39.1844	81.0000
39.1937	108.0000
39.2029	115.0000
39.2121	108.0000
39.2213	80.0000
39.2306	95.0000
39.2398	83.0000
39.2490	96.0000
39.2582	89.0000
39.2674	76.0000
39.2767	96.0000
39.2859	96.0000
39.2951	109.0000
39.3043	97.0000
39.3136	106.0000
39.3228	110.0000
39.3320	105.0000
39.3412	103.0000
39.3504	99.0000
39.3597	108.0000
39.3689	95.0000
39.3781	104.0000
39.3873	87.0000
39.3966	93.0000
39.4058	86.0000
39.4150	85.0000
39.4242	105.0000
39.4334	107.0000
39.4427	94.0000
39.4519	101.0000
39.4611	93.0000
39.4703	99.0000
39.4796	119.0000
39.4888	90.0000
39.4980	119.0000
39.5072	84.0000
39.5165	74.0000
39.5257	103.0000
39.5349	87.0000
39.5441	92.0000
39.5533	87.0000
39.5626	75.0000
39.5718	89.0000
39.5810	96.0000
39.5902	81.0000
39.5995	109.0000
39.6087	101.0000
39.6179	91.0000
39.6271	103.0000
39.6363	90.0000
39.6456	96.0000
39.6548	104.0000
39.6640	102.0000
39.6732	87.0000
39.6825	106.0000
39.6917	90.0000
39.7009	101.0000
39.7101	69.0000
39.7194	86.0000
39.7286	100.0000
39.7378	79.0000
39.7470	124.0000
39.7562	101.0000
39.7655	91.0000
39.7747	96.0000
39.7839	102.0000
39.7931	91.0000
39.8024	112.0000
39.8116	91.0000
39.8208	97.0000
39.8300	97.0000
39.8392	77.0000
39.8485	80.0000
39.8577	79.0000
39.8669	84.0000
39.8761	100.0000
39.8854	103.0000
39.8946	88.0000
39.9038	93.0000
39.9130	97.0000
39.9222	100.0000
39.9315	92.0000
39.9407	89.0000
39.9499	84.0000
39.9591	93.0000
39.9684	101.0000
39.9776	96.0000
39.9868	90.0000
39.9960	100.0000
40.0053	99.0000
40.0145	101.0000
40.0237	101.0000
40.0329	88.0000
40.0421	102.0000
40.0514	96.0000
40.0606	109.0000
40.0698	77.0000
40.0790	101.0000
40.0883	104.0000
40.0975	96.0000
40.1067	80.0000
40.1159	94.0000
40.1251	101.0000
40.1344	89.0000
40.1436	93.0000
40.1528	107.0000
40.1620	98.0000
40.1713	85.0000
40.1805	85.0000
40.1897	111.0000
40.1989	102.0000
40.2082	99.0000
40.2174	76.0000
40.2266	80.0000
40.2358	95.0000
40.2450	98.0000
40.2543	107.0000
40.2635	89.0000
40.2727	74.0000
40.2819	82.0000
40.2912	89.0000
40.3004	89.0000
40.3096	94.0000
40.3188	127.0000
40.3280	101.0000
40.3373	92.0000
40.3465	104.0000
40.3557	113.0000
40.3649	77.0000
40.3742	83.0000
40.3834	97.0000
40.3926	90.0000
40.4018	99.0000
40.4111	94.0000
40.4203	93.0000
40.4295	90.0000
40.4387	99.0000
40.4479	91.0000
40.4572	91.0000
40.4664	93.0000
40.4756	84.0000
40.4848	97.0000
40.4941	110.0000
40.5033	80.0000
40.5125	99.0000
40.5217	104.0000
40.5309	77.0000
40.5402	111.0000
40.5494	109.0000
40.5586	90.0000
40.5678	95.0000
40.5771	87.0000
40.5863	98.0000
40.5955	91.0000
40.6047	104.0000
40.6139	90.0000
40.6232	104.0000
40.6324	109.0000
40.6416	99.0000
40.6508	90.0000
40.6601	91.0000
40.6693	94.0000
40.6785	94.0000
40.6877	108.0000
40.6970	91.0000
40.7062	84.0000
40.7154	107.0000
40.7246	91.0000
40.7338	86.0000
40.7431	89.0000
40.7523	92.0000
40.7615	97.0000
40.7707	87.0000
40.7800	75.0000
40.7892	85.0000
40.7984	91.0000
40.8076	86.0000
40.8168	90.0000
40.8261	98.0000
40.8353	107.0000
40.8445	79.0000
40.8537	99.0000
40.8630	93.0000
40.8722	93.0000
40.8814	86.0000
40.8906	97.0000
40.8999	96.0000
40.9091	85.0000
40.9183	100.0000
40.9275	105.0000
40.9367	87.0000
40.9460	90.0000
40.9552	92.0000
40.9644	92.0000
40.9736	100.0000
40.9829	96.0000
40.9921	84.0000
41.0013	94.0000
41.0105	97.0000
41.0197	118.0000
41.0290	96.0000
41.0382	83.0000
41.0474	91.0000
41.0566	84.0000
41.0659	82.0000
41.0751	100.0000
41.0843	91.0000
41.0935	101.0000
41.1027	91.0000
41.1120	118.0000
41.1212	102.0000
41.1304	93.0000
41.1396	93.0000
41.1489	97.0000
41.1581	94.0000
41.1673	87.0000
41.1765	92.0000
41.1858	100.0000
41.1950	85.0000
41.2042	96.0000
41.2134	90.0000
41.2226	95.0000
41.2319	79.0000
41.2411	96.0000
41.2503	100.0000
41.2595	97.0000
41.2688	100.0000
41.2780	92.0000
41.2872	109.0000
41.2964	98.0000
41.3056	99.0000
41.3149	104.0000
41.3241	88.0000
41.3333	100.0000
41.3425	115.0000
41.3518	88.0000
41.3610	87.0000
41.3702	87.0000
41.3794	94.0000
41.3887	96.0000
41.3979	102.0000
41.4071	111.0000
41.4163	95.0000
41.4255	77.0000
41.4348	84.0000
41.4440	102.0000
41.4532	102.0000
41.4624	76.0000
41.4717	76.0000
41.4809	104.0000
41.4901	126.0000
41.4993	87.0000
41.5085	85.0000
41.5178	89.0000
41.5270	93.0000
41.5362	104.0000
41.5454	85.0000
41.5547	89.0000
41.5639	98.0000
41.5731	113.0000
41.5823	81.0000
41.5915	101.0000
41.6008	92.0000
41.6100	100.0000
41.6192	111.0000
41.6284	96.0000
41.6377	81.0000
41.6469	98.0000
41.6561	92.0000
41.6653	106.0000
41.6746	94.0000
41.6838	97.0000
41.6930	115.0000
41.7022	106.0000
41.7114	84.0000
41.7207	86.0000
41.7299	93.0000
41.7391	82.0000
41.7483	86.0000
41.7576	102.0000
41.7668	94.0000
41.7760	102.0000
41.7852	85.0000
41.7944	76.0000
41.8037	84.0000
41.8129	103.0000
41.8221	89.0000
41.8313	102.0000
41.8406	96.0000
41.8498	86.0000
41.8590	93.0000
41.8682	93.0000
41.8775	92.0000
41.8867	84.0000
41.8959	103.0000
41.9051	89.0000
41.9143	88.0000
41.9236	77.0000
41.9328	70.0000
41.9420	97.0000
41.9512	83.0000
41.9605	85.0000
41.9697	97.0000
41.9789	83.0000
41.9881	100.0000
41.9973	106.0000
42.0066	86.0000
42.0158	102.0000
42.0250	110.0000
42.0342	102.0000
42.0435	117.0000
42.0527	90.0000
42.0619	83.0000
42.0711	82.0000
42.0804	94.0000
42.0896	64.0000
42.0988	96.0000
42.1080	96.0000
42.1172	98.0000
42.1265	106.0000
42.1357	103.0000
42.1449	95.0000
42.1541	96.0000
42.1634	82.0000
42.1726	90.0000
42.1818	104.0000
42.1910	84.0000
42.2002	91.0000
42.2095	100.0000
42.2187	103.0000
42.2279	92.0000
42.2371	98.0000
42.2464	97.0000
42.2556	84.0000
42.2648	82.0000
42.2740	69.0000
42.2832	90.0000
42.2925	88.0000
42.3017	86.0000
42.3109	96.0000
42.3201	83.0000
42.3294	83.0000
42.3386	102.0000
42.3478	89.0000
42.3570	85.0000
42.3663	85.0000
42.3755	89.0000
42.3847	96.0000
42.3939	87.0000
42.4031	95.0000
42.4124	99.0000
42.4216	89.0000
42.4308	98.0000
42.4400	110.0000
42.4493	81.0000
42.4585	105.0000
42.4677	99.0000
42.4769	96.0000
42.4861	93.0000
42.4954	120.0000
42.5046	90.0000
42.5138	81.0000
42.5230	93.0000
42.5323	84.0000
42.5415	89.0000
42.5507	82.0000
42.5599	80.0000
42.5692	76.0000
42.5784	82.0000
42.5876	93.0000
42.5968	86.0000
42.6060	92.0000
42.6153	97.0000
42.6245	90.0000
42.6337	94.0000
42.6429	88.0000
42.6522	82.0000
42.6614	88.0000
42.6706	74.0000
42.6798	89.0000
42.6890	97.0000
42.6983	98.0000
42.7075	101.0000
42.7167	97.0000
42.7259	92.0000
42.7352	109.0000
42.7444	96.0000
42.7536	92.0000
42.7628	111.0000
42.7720	107.0000
42.7813	84.0000
42.7905	98.0000
42.7997	89.0000
42.8089	88.0000
42.8182	76.0000
42.8274	76.0000
42.8366	99.0000
42.8458	92.0000
42.8551	78.0000
42.8643	84.0000
42.8735	102.0000
42.8827	89.0000
42.8919	78.0000
42.9012	94.0000
42.9104	85.0000
42.9196	97.0000
42.9288	89.0000
42.9381	72.0000
42.9473	96.0000
42.9565	111.0000
42.9657	92.0000
42.9749	96.0000
42.9842	92.0000
42.9934	92.0000
43.0026	78.0000
43.0118	114.0000
43.0211	89.0000
43.0303	101.0000
43.0395	86.0000
43.0487	83.0000
43.0580	91.0000
43.0672	87.0000
43.0764	95.0000
43.0856	86.0000
43.0948	83.0000
43.1041	82.0000
43.1133	108.0000
43.1225	103.0000
43.1317	96.0000
43.1410	98.0000
43.1502	90.0000
43.1594	83.0000
43.1686	96.0000
43.1778	91.0000
43.1871	77.0000
43.1963	83.0000
43.2055	77.0000
43.2147	79.0000
43.2240	101.0000
43.2332	99.0000
43.2424	83.0000
43.2516	99.0000
43.2609	88.0000
43.2701	90.0000
43.2793	107.0000
43.2885	95.0000
43.2977	100.0000
43.3070	95.0000
43.3162	97.0000
43.3254	113.0000
43.3346	108.0000
43.3439	117.0000
43.3531	149.0000
43.3623	179.0000
43.3715	188.0000
43.3807	162.0000
43.3900	156.0000
43.3992	109.0000
43.4084	90.0000
43.4176	111.0000
43.4269	109.0000
43.4361	99.0000
43.4453	99.0000
43.4545	82.0000
43.4637	92.0000
43.4730	101.0000
43.4822	93.0000
43.4914	100.0000
43.5006	99.0000
43.5099	81.0000
43.5191	96.0000
43.5283	103.0000
43.5375	77.0000
43.5468	92.0000
43.5560	110.0000
43.5652	85.0000
43.5744	92.0000
43.5836	106.0000
43.5929	92.0000
43.6021	91.0000
43.6113	98.0000
43.6205	118.0000
43.6298	135.0000
43.6390	137.0000
43.6482	139.0000
43.6574	128.0000
43.6666	108.0000
43.6759	113.0000
43.6851	125.0000
43.6943	81.0000
43.7035	95.0000
43.7128	90.0000
43.7220	98.0000
43.7312	92.0000
43.7404	92.0000
43.7497	94.0000
43.7589	90.0000
43.7681	95.0000
43.7773	87.0000
43.7865	73.0000
43.7958	105.0000
43.8050	78.0000
43.8142	98.0000
43.8234	86.0000
43.8327	89.0000
43.8419	77.0000
43.8511	92.0000
43.8603	81.0000
43.8695	96.0000
43.8788	89.0000
43.8880	81.0000
43.8972	86.0000
43.9064	77.0000
43.9157	103.0000
43.9249	84.0000
43.9341	90.0000
43.9433	105.0000
43.9525	84.0000
43.9618	100.0000
43.9710	90.0000
43.9802	95.0000
43.9894	88.0000
43.9987	100.0000
44.0079	93.0000
44.0171	97.0000
44.0263	80.0000
44.0356	104.0000
44.0448	91.0000
44.0540	79.0000
44.0632	87.0000
44.0724	88.0000
44.0817	83.0000
44.0909	88.0000
44.1001	98.0000
44.1093	82.0000
44.1186	88.0000
44.1278	100.0000
44.1370	77.0000
44.1462	94.0000
44.1554	94.0000
44.1647	95.0000
44.1739	78.0000
44.1831	80.0000
44.1923	96.0000
44.2016	93.0000
44.2108	109.0000
44.2200	83.0000
44.2292	79.0000
44.2385	80.0000
44.2477	76.0000
44.2569	113.0000
44.2661	102.0000
44.2753	99.0000
44.2846	76.0000
44.2938	91.0000
44.3030	97.0000
44.3122	95.0000
44.3215	78.0000
44.3307	80.0000
44.3399	85.0000
44.3491	79.0000
44.3583	87.0000
44.3676	101.0000
44.3768	76.0000
44.3860	74.0000
44.3952	89.0000
44.4045	89.0000
44.4137	90.0000
44.4229	80.0000
44.4321	91.0000
44.4414	80.0000
44.4506	86.0000
44.4598	83.0000
44.4690	76.0000
44.4782	86.0000
44.4875	86.0000
44.4967	85.0000
44.5059	92.0000
44.5151	91.0000
44.5244	82.0000
44.5336	98.0000
44.5428	71.0000
44.5520	74.0000
44.5612	88.0000
44.5705	96.0000
44.5797	77.0000
44.5889	97.0000
44.5981	92.0000
44.6074	93.0000
44.6166	68.0000
44.6258	96.0000
44.6350	104.0000
44.6442	89.0000
44.6535	77.0000
44.6627	93.0000
44.6719	95.0000
44.6811	82.0000
44.6904	77.0000
44.6996	80.0000
44.7088	86.0000
44.7180	91.0000
44.7273	71.0000
44.7365	88.0000
44.7457	74.0000
44.7549	103.0000
44.7641	112.0000
44.7734	100.0000
44.7826	75.0000
44.7918	83.0000
44.8010	63.0000
44.8103	86.0000
44.8195	79.0000
44.8287	83.0000
44.8379	68.0000
44.8471	89.0000
44.8564	73.0000
44.8656	99.0000
44.8748	101.0000
44.8840	95.0000
44.8933	84.0000
44.9025	94.0000
44.9117	80.0000
44.9209	87.0000
44.9302	77.0000
44.9394	81.0000
44.9486	96.0000
44.9578	82.0000
44.9670	87.0000
44.9763	81.0000
44.9855	70.0000
44.9947	60.0000
45.0039	82.0000
45.0132	65.0000
45.0224	83.0000
45.0316	81.0000
45.0408	67.0000
45.0500	68.0000
45.0593	92.0000
45.0685	83.0000
45.0777	83.0000
45.0869	89.0000
45.0962	86.0000
45.1054	76.0000
45.1146	74.0000
45.1238	83.0000
45.1330	85.0000
45.1423	85.0000
45.1515	95.0000
45.1607	80.0000
45.1699	100.0000
45.1792	94.0000
45.1884	69.0000
45.1976	93.0000
45.2068	86.0000
45.2161	102.0000
45.2253	82.0000
45.2345	83.0000
45.2437	79.0000
45.2529	86.0000
45.2622	91.0000
45.2714	88.0000
45.2806	81.0000
45.2898	93.0000
45.2991	80.0000
45.3083	89.0000
45.3175	83.0000
45.3267	94.0000
45.3359	83.0000
45.3452	89.0000
45.3544	85.0000
45.3636	75.0000
45.3728	78.0000
45.3821	74.0000
45.3913	89.0000
45.4005	79.0000
45.4097	88.0000
45.4190	99.0000
45.4282	109.0000
45.4374	110.0000
45.4466	117.0000
45.4558	135.0000
45.4651	169.0000
45.4743	150.0000
45.4835	129.0000
45.4927	131.0000
45.5020	129.0000
45.5112	110.0000
45.5204	114.0000
45.5296	95.0000
45.5388	73.0000
45.5481	91.0000
45.5573	60.0000
45.5665	81.0000
45.5757	86.0000
45.5850	75.0000
45.5942	80.0000
45.6034	74.0000
45.6126	83.0000
45.6219	96.0000
45.6311	83.0000
45.6403	81.0000
45.6495	85.0000
45.6587	98.0000
45.6680	79.0000
45.6772	86.0000
45.6864	81.0000
45.6956	84.0000
45.7049	79.0000
45.7141	87.0000
45.7233	92.0000
45.7325	110.0000
45.7417	121.0000
45.7510	125.0000
45.7602	128.0000
45.7694	112.0000
45.7786	108.0000
45.7879	95.0000
45.7971	94.0000
45.8063	83.0000
45.8155	88.0000
45.8247	82.0000
45.8340	86.0000
45.8432	93.0000
45.8524	77.0000
45.8616	87.0000
45.8709	79.0000
45.8801	82.0000
45.8893	83.0000
45.8985	87.0000
45.9078	70.0000
45.9170	81.0000
45.9262	76.0000
45.9354	79.0000
45.9446	83.0000
45.9539	100.0000
45.9631	82.0000
45.9723	65.0000
45.9815	78.0000
45.9908	83.0000
46.0000	85.0000
46.0092	62.0000
46.0184	72.0000
46.0276	77.0000
46.0369	83.0000
46.0461	71.0000
46.0553	86.0000
46.0645	77.0000
46.0738	70.0000
46.0830	63.0000
46.0922	81.0000
46.1014	87.0000
46.1107	78.0000
46.1199	76.0000
46.1291	70.0000
46.1383	85.0000
46.1475	81.0000
46.1568	88.0000
46.1660	81.0000
46.1752	95.0000
46.1844	72.0000
46.1937	79.0000
46.2029	89.0000
46.2121	94.0000
46.2213	78.0000
46.2305	64.0000
46.2398	80.0000
46.2490	92.0000
46.2582	66.0000
46.2674	72.0000
46.2767	81.0000
46.2859	74.0000
46.2951	78.0000
46.3043	75.0000
46.3135	90.0000
46.3228	78.0000
46.3320	91.0000
46.3412	79.0000
46.3504	92.0000
46.3597	69.0000
46.3689	74.0000
46.3781	67.0000
46.3873	85.0000
46.3966	82.0000
46.4058	72.0000
46.4150	87.0000
46.4242	66.0000
46.4334	71.0000
46.4427	64.0000
46.4519	71.0000
46.4611	75.0000
46.4703	76.0000
46.4796	82.0000
46.4888	88.0000
46.4980	80.0000
46.5072	84.0000
46.5164	64.0000
46.5257	57.0000
46.5349	69.0000
46.5441	84.0000
46.5533	76.0000
46.5626	81.0000
46.5718	83.0000
46.5810	80.0000
46.5902	84.0000
46.5995	64.0000
46.6087	85.0000
46.6179	67.0000
46.6271	92.0000
46.6363	77.0000
46.6456	77.0000
46.6548	78.0000
46.6640	84.0000
46.6732	84.0000
46.6825	82.0000
46.6917	74.0000
46.7009	72.0000
46.7101	64.0000
46.7193	70.0000
46.7286	79.0000
46.7378	69.0000
46.7470	89.0000
46.7562	64.0000
46.7655	92.0000
46.7747	64.0000
46.7839	77.0000
46.7931	79.0000
46.8024	83.0000
46.8116	71.0000
46.8208	91.0000
46.8300	59.0000
46.8392	75.0000
46.8485	69.0000
46.8577	68.0000
46.8669	72.0000
46.8761	77.0000
46.8854	77.0000
46.8946	86.0000
46.9038	85.0000
46.9130	74.0000
46.9222	65.0000
46.9315	79.0000
46.9407	81.0000
46.9499	88.0000
46.9591	74.0000
46.9684	85.0000
46.9776	89.0000
46.9868	56.0000
46.9960	70.0000
47.0052	84.0000
47.0145	66.0000
47.0237	69.0000
47.0329	64.0000
47.0421	71.0000
47.0514	77.0000
47.0606	72.0000
47.0698	73.0000
47.0790	86.0000
47.0883	71.0000
47.0975	77.0000
47.1067	65.0000
47.1159	74.0000
47.1251	78.0000
47.1344	59.0000
47.1436	74.0000
47.1528	70.0000
47.1620	80.0000
47.1713	68.0000
47.1805	80.0000
47.1897	75.0000
47.1989	67.0000
47.2081	80.0000
47.2174	86.0000
47.2266	63.0000
47.2358	82.0000
47.2450	72.0000
47.2543	72.0000
47.2635	74.0000
47.2727	70.0000
47.2819	93.0000
47.2912	72.0000
47.3004	78.0000
47.3096	66.0000
47.3188	78.0000
47.3280	86.0000
47.3373	69.0000
47.3465	67.0000
47.3557	67.0000
47.3649	69.0000
47.3742	70.0000
47.3834	79.0000
47.3926	65.0000
47.4018	95.0000
47.4110	88.0000
47.4203	66.0000
47.4295	71.0000
47.4387	74.0000
47.4479	72.0000
47.4572	65.0000
47.4664	79.0000
47.4756	63.0000
47.4848	81.0000
47.4940	78.0000
47.5033	76.0000
47.5125	56.0000
47.5217	75.0000
47.5309	75.0000
47.5402	73.0000
47.5494	78.0000
47.5586	73.0000
47.5678	68.0000
47.5771	67.0000
47.5863	66.0000
47.5955	82.0000
47.6047	55.0000
47.6139	70.0000
47.6232	58.0000
47.6324	57.0000
47.6416	73.0000
47.6508	69.0000
47.6601	65.0000
47.6693	70.0000
47.6785	75.0000
47.6877	73.0000
47.6969	76.0000
47.7062	75.0000
47.7154	74.0000
47.7246	79.0000
47.7338	63.0000
47.7431	60.0000
47.7523	64.0000
47.7615	80.0000
47.7707	67.0000
47.7800	69.0000
47.7892	90.0000
47.7984	75.0000
47.8076	77.0000
47.8168	73.0000
47.8261	69.0000
47.8353	69.0000
47.8445	57.0000
47.8537	56.0000
47.8630	72.0000
47.8722	72.0000
47.8814	66.0000
47.8906	56.0000
47.8998	69.0000
47.9091	77.0000
47.9183	72.0000
47.9275	67.0000
47.9367	65.0000
47.9460	73.0000
47.9552	76.0000
47.9644	63.0000
47.9736	70.0000
47.9829	69.0000
47.9921	72.0000
48.0013	62.0000
