11.0000	512.0000
11.0092	537.0000
11.0184	556.0000
11.0277	524.0000
11.0369	516.0000
11.0461	530.0000
11.0553	519.0000
11.0646	493.0000
11.0738	484.0000
11.0830	496.0000
11.0922	514.0000
11.1014	514.0000
11.1107	450.0000
11.1199	517.0000
11.1291	501.0000
11.1383	549.0000
11.1476	492.0000
11.1568	471.0000
11.1660	493.0000
11.1752	498.0000
11.1845	484.0000
11.1937	512.0000
11.2029	495.0000
11.2121	493.0000
11.2213	492.0000
11.2306	486.0000
11.2398	507.0000
11.2490	479.0000
11.2582	437.0000
11.2675	497.0000
11.2767	503.0000
11.2859	506.0000
11.2951	508.0000
11.3043	491.0000
11.3136	489.0000
11.3228	490.0000
11.3320	495.0000
11.3412	481.0000
11.3505	488.0000
11.3597	483.0000
11.3689	469.0000
11.3781	467.0000
11.3874	430.0000
11.3966	495.0000
11.4058	439.0000
11.4150	432.0000
11.4242	487.0000
11.4335	493.0000
11.4427	463.0000
11.4519	481.0000
11.4611	434.0000
11.4704	449.0000
11.4796	482.0000
11.4888	517.0000
11.4980	433.0000
11.5072	460.0000
11.5165	443.0000
11.5257	481.0000
11.5349	426.0000
11.5441	420.0000
11.5534	437.0000
11.5626	435.0000
11.5718	409.0000
11.5810	491.0000
11.5902	446.0000
11.5995	410.0000
11.6087	402.0000
11.6179	437.0000
11.6271	435.0000
11.6364	454.0000
11.6456	417.0000
11.6548	441.0000
11.6640	471.0000
11.6733	429.0000
11.6825	456.0000
11.6917	456.0000
11.7009	437.0000
11.7101	444.0000
11.7194	388.0000
11.7286	438.0000
11.7378	421.0000
11.7470	400.0000
11.7563	424.0000
11.7655	390.0000
11.7747	435.0000
11.7839	406.0000
11.7931	433.0000
11.8024	410.0000
11.8116	442.0000
11.8208	389.0000
11.8300	389.0000
11.8393	420.0000
11.8485	429.0000
11.8577	415.0000
11.8669	390.0000
11.8762	396.0000
11.8854	393.0000
11.8946	408.0000
11.9038	353.0000
11.9130	404.0000
11.9223	371.0000
11.9315	388.0000
11.9407	412.0000
11.9499	398.0000
11.9592	406.0000
11.9684	395.0000
11.9776	392.0000
11.9868	411.0000
11.9960	372.0000
12.0053	386.0000
12.0145	393.0000
12.0237	373.0000
12.0329	410.0000
12.0422	362.0000
12.0514	407.0000
12.0606	410.0000
12.0698	429.0000
12.0791	397.0000
12.0883	386.0000
12.0975	367.0000
12.1067	398.0000
12.1159	365.0000
12.1252	377.0000
12.1344	369.0000
12.1436	397.0000
12.1528	317.0000
12.1621	379.0000
12.1713	357.0000
12.1805	369.0000
12.1897	367.0000
12.1989	369.0000
12.2082	357.0000
12.2174	360.0000
12.2266	390.0000
12.2358	361.0000
12.2451	395.0000
12.2543	360.0000
12.2635	338.0000
12.2727	362.0000
12.2819	354.0000
12.2912	377.0000
12.3004	362.0000
12.3096	329.0000
12.3188	351.0000
12.3281	385.0000
12.3373	395.0000
12.3465	364.0000
12.3557	354.0000
12.3650	355.0000
12.3742	348.0000
12.3834	324.0000
12.3926	381.0000
12.4018	379.0000
12.4111	349.0000
12.4203	395.0000
12.4295	348.0000
12.4387	348.0000
12.4480	347.0000
12.4572	342.0000
12.4664	347.0000
12.4756	370.0000
12.4848	305.0000
12.4941	346.0000
12.5033	364.0000
12.5125	351.0000
12.5217	343.0000
12.5310	340.0000
12.5402	369.0000
12.5494	373.0000
12.5586	318.0000
12.5679	339.0000
12.5771	346.0000
12.5863	308.0000
12.5955	313.0000
12.6047	370.0000
12.6140	325.0000
12.6232	320.0000
12.6324	331.0000
12.6416	328.0000
12.6509	345.0000
12.6601	315.0000
12.6693	339.0000
12.6785	300.0000
12.6877	322.0000
12.6970	344.0000
12.7062	313.0000
12.7154	342.0000
12.7246	349.0000
12.7339	340.0000
12.7431	334.0000
12.7523	341.0000
12.7615	326.0000
12.7707	287.0000
12.7800	352.0000
12.7892	325.0000
12.7984	303.0000
12.8076	346.0000
12.8169	336.0000
12.8261	345.0000
12.8353	327.0000
12.8445	332.0000
12.8538	345.0000
12.8630	326.0000
12.8722	299.0000
12.8814	288.0000
12.8906	332.0000
12.8999	324.0000
12.9091	312.0000
12.9183	310.0000
12.9275	317.0000
12.9368	282.0000
12.9460	291.0000
12.9552	312.0000
12.9644	268.0000
12.9736	309.0000
12.9829	307.0000
12.9921	328.0000
13.0013	314.0000
13.0105	278.0000
13.0198	310.0000
13.0290	277.0000
13.0382	283.0000
13.0474	312.0000
13.0567	278.0000
13.0659	347.0000
13.0751	295.0000
13.0843	299.0000
13.0935	301.0000
13.1028	286.0000
13.1120	313.0000
13.1212	328.0000
13.1304	297.0000
13.1397	317.0000
13.1489	311.0000
13.1581	315.0000
13.1673	291.0000
13.1765	267.0000
13.1858	306.0000
13.1950	298.0000
13.2042	279.0000
13.2134	292.0000
13.2227	302.0000
13.2319	280.0000
13.2411	303.0000
13.2503	285.0000
13.2596	303.0000
13.2688	317.0000
13.2780	280.0000
13.2872	281.0000
13.2964	295.0000
13.3057	313.0000
13.3149	286.0000
13.3241	292.0000
13.3333	287.0000
13.3426	317.0000
13.3518	271.0000
13.3610	254.0000
13.3702	288.0000
13.3794	267.0000
13.3887	289.0000
13.3979	279.0000
13.4071	289.0000
13.4163	304.0000
13.4256	252.0000
13.4348	263.0000
13.4440	290.0000
13.4532	271.0000
13.4624	293.0000
13.4717	277.0000
13.4809	291.0000
13.4901	261.0000
13.4993	296.0000
13.5086	289.0000
13.5178	324.0000
13.5270	271.0000
13.5362	310.0000
13.5455	270.0000
13.5547	296.0000
13.5639	244.0000
13.5731	281.0000
13.5823	304.0000
13.5916	276.0000
13.6008	266.0000
13.6100	278.0000
13.6192	272.0000
13.6285	253.0000
13.6377	278.0000
13.6469	247.0000
13.6561	276.0000
13.6653	258.0000
13.6746	299.0000
13.6838	285.0000
13.6930	271.0000
13.7022	254.0000
13.7115	274.0000
13.7207	284.0000
13.7299	256.0000
13.7391	274.0000
13.7484	294.0000
13.7576	252.0000
13.7668	277.0000
13.7760	270.0000
13.7852	283.0000
13.7945	248.0000
13.8037	234.0000
13.8129	251.0000
13.8221	264.0000
13.8314	275.0000
13.8406	248.0000
13.8498	248.0000
13.8590	264.0000
13.8682	265.0000
13.8775	264.0000
13.8867	266.0000
13.8959	258.0000
13.9051	258.0000
13.9144	235.0000
13.9236	276.0000
13.9328	272.0000
13.9420	224.0000
13.9512	245.0000
13.9605	281.0000
13.9697	258.0000
13.9789	240.0000
13.9881	256.0000
13.9974	244.0000
14.0066	258.0000
14.0158	231.0000
14.0250	262.0000
14.0343	237.0000
14.0435	243.0000
14.0527	232.0000
14.0619	246.0000
14.0711	234.0000
14.0804	264.0000
14.0896	240.0000
14.0988	235.0000
14.1080	266.0000
14.1173	240.0000
14.1265	247.0000
14.1357	256.0000
14.1449	246.0000
14.1541	257.0000
14.1634	239.0000
14.1726	230.0000
14.1818	254.0000
14.1910	264.0000
14.2003	261.0000
14.2095	245.0000
14.2187	277.0000
14.2279	264.0000
14.2372	237.0000
14.2464	235.0000
14.2556	229.0000
14.2648	247.0000
14.2740	265.0000
14.2833	225.0000
14.2925	254.0000
14.3017	265.0000
14.3109	234.0000
14.3202	238.0000
14.3294	237.0000
14.3386	201.0000
14.3478	285.0000
14.3570	255.0000
14.3663	243.0000
14.3755	213.0000
14.3847	236.0000
14.3939	236.0000
14.4032	220.0000
14.4124	216.0000
14.4216	245.0000
14.4308	245.0000
14.4401	240.0000
14.4493	238.0000
14.4585	241.0000
14.4677	250.0000
14.4769	257.0000
14.4862	260.0000
14.4954	244.0000
14.5046	222.0000
14.5138	239.0000
14.5231	221.0000
14.5323	233.0000
14.5415	237.0000
14.5507	228.0000
14.5599	252.0000
14.5692	243.0000
14.5784	234.0000
14.5876	214.0000
14.5968	218.0000
14.6061	239.0000
14.6153	262.0000
14.6245	217.0000
14.6337	248.0000
14.6429	268.0000
14.6522	207.0000
14.6614	267.0000
14.6706	212.0000
14.6798	253.0000
14.6891	228.0000
14.6983	259.0000
14.7075	236.0000
14.7167	226.0000
14.7260	228.0000
14.7352	249.0000
14.7444	214.0000
14.7536	237.0000
14.7628	224.0000
14.7721	238.0000
14.7813	206.0000
14.7905	257.0000
14.7997	214.0000
14.8090	236.0000
14.8182	239.0000
14.8274	220.0000
14.8366	239.0000
14.8458	219.0000
14.8551	231.0000
14.8643	230.0000
14.8735	213.0000
14.8827	220.0000
14.8920	233.0000
14.9012	246.0000
14.9104	262.0000
14.9196	216.0000
14.9289	210.0000
14.9381	227.0000
14.9473	192.0000
14.9565	235.0000
14.9657	238.0000
14.9750	218.0000
14.9842	184.0000
14.9934	217.0000
15.0026	221.0000
15.0119	211.0000
15.0211	235.0000
15.0303	215.0000
15.0395	207.0000
15.0487	233.0000
15.0580	199.0000
15.0672	216.0000
15.0764	196.0000
15.0856	219.0000
15.0949	191.0000
15.1041	220.0000
15.1133	240.0000
15.1225	191.0000
15.1317	222.0000
15.1410	211.0000
15.1502	216.0000
15.1594	227.0000
15.1686	221.0000
15.1779	230.0000
15.1871	243.0000
15.1963	200.0000
15.2055	206.0000
15.2148	202.0000
15.2240	201.0000
15.2332	209.0000
15.2424	212.0000
15.2516	215.0000
15.2609	205.0000
15.2701	222.0000
15.2793	213.0000
15.2885	194.0000
15.2978	202.0000
15.3070	191.0000
15.3162	228.0000
15.3254	226.0000
15.3346	211.0000
15.3439	195.0000
15.3531	195.0000
15.3623	204.0000
15.3715	208.0000
15.3808	214.0000
15.3900	214.0000
15.3992	222.0000
15.4084	197.0000
15.4177	211.0000
15.4269	223.0000
15.4361	235.0000
15.4453	204.0000
15.4545	200.0000
15.4638	204.0000
15.4730	190.0000
15.4822	230.0000
15.4914	213.0000
15.5007	206.0000
15.5099	205.0000
15.5191	195.0000
15.5283	209.0000
15.5375	197.0000
15.5468	214.0000
15.5560	195.0000
15.5652	202.0000
15.5744	195.0000
15.5837	214.0000
15.5929	224.0000
15.6021	237.0000
15.6113	218.0000
15.6206	214.0000
15.6298	196.0000
15.6390	233.0000
15.6482	180.0000
15.6574	223.0000
15.6667	215.0000
15.6759	225.0000
15.6851	228.0000
15.6943	179.0000
15.7036	196.0000
15.7128	196.0000
15.7220	187.0000
15.7312	210.0000
15.7404	210.0000
15.7497	200.0000
15.7589	193.0000
15.7681	205.0000
15.7773	199.0000
15.7866	207.0000
15.7958	188.0000
15.8050	210.0000
15.8142	183.0000
15.8234	210.0000
15.8327	187.0000
15.8419	212.0000
15.8511	190.0000
15.8603	189.0000
15.8696	216.0000
15.8788	196.0000
15.8880	209.0000
15.8972	182.0000
15.9065	184.0000
15.9157	192.0000
15.9249	190.0000
15.9341	185.0000
15.9433	181.0000
15.9526	168.0000
15.9618	186.0000
15.9710	211.0000
15.9802	216.0000
15.9895	184.0000
15.9987	219.0000
16.0079	188.0000
16.0171	199.0000
16.0263	197.0000
16.0356	200.0000
16.0448	208.0000
16.0540	224.0000
16.0632	212.0000
16.0725	222.0000
16.0817	195.0000
16.0909	197.0000
16.1001	202.0000
16.1094	206.0000
16.1186	204.0000
16.1278	208.0000
16.1370	181.0000
16.1462	192.0000
16.1555	210.0000
16.1647	203.0000
16.1739	176.0000
16.1831	170.0000
16.1924	203.0000
16.2016	174.0000
16.2108	190.0000
16.2200	168.0000
16.2292	192.0000
16.2385	192.0000
16.2477	189.0000
16.2569	201.0000
16.2661	172.0000
16.2754	210.0000
16.2846	164.0000
16.2938	224.0000
16.3030	166.0000
16.3122	185.0000
16.3215	194.0000
16.3307	186.0000
16.3399	174.0000
16.3491	187.0000
16.3584	188.0000
16.3676	173.0000
16.3768	177.0000
16.3860	214.0000
16.3953	192.0000
16.4045	189.0000
16.4137	187.0000
16.4229	198.0000
16.4321	191.0000
16.4414	191.0000
16.4506	171.0000
16.4598	193.0000
16.4690	206.0000
16.4783	180.0000
16.4875	179.0000
16.4967	195.0000
16.5059	187.0000
16.5151	193.0000
16.5244	194.0000
16.5336	176.0000
16.5428	176.0000
16.5520	167.0000
16.5613	169.0000
16.5705	177.0000
16.5797	175.0000
16.5889	197.0000
16.5982	179.0000
16.6074	165.0000
16.6166	191.0000
16.6258	203.0000
16.6350	167.0000
16.6443	179.0000
16.6535	186.0000
16.6627	179.0000
16.6719	186.0000
16.6812	186.0000
16.6904	177.0000
16.6996	177.0000
16.7088	211.0000
16.7180	168.0000
16.7273	168.0000
16.7365	196.0000
16.7457	163.0000
16.7549	169.0000
16.7642	152.0000
16.7734	176.0000
16.7826	201.0000
16.7918	173.0000
16.8011	189.0000
16.8103	168.0000
16.8195	164.0000
16.8287	183.0000
16.8379	195.0000
16.8472	190.0000
16.8564	175.0000
16.8656	202.0000
16.8748	195.0000
16.8841	175.0000
16.8933	195.0000
16.9025	160.0000
16.9117	186.0000
16.9209	186.0000
16.9302	154.0000
16.9394	173.0000
16.9486	175.0000
16.9578	173.0000
16.9671	169.0000
16.9763	166.0000
16.9855	164.0000
16.9947	189.0000
17.0039	157.0000
17.0132	171.0000
17.0224	179.0000
17.0316	169.0000
17.0408	177.0000
17.0501	195.0000
17.0593	177.0000
17.0685	175.0000
17.0777	158.0000
17.0870	183.0000
17.0962	177.0000
17.1054	164.0000
17.1146	169.0000
17.1238	179.0000
17.1331	164.0000
17.1423	162.0000
17.1515	186.0000
17.1607	148.0000
17.1700	166.0000
17.1792	183.0000
17.1884	155.0000
17.1976	183.0000
17.2068	180.0000
17.2161	171.0000
17.2253	176.0000
17.2345	171.0000
17.2437	166.0000
17.2530	168.0000
17.2622	160.0000
17.2714	164.0000
17.2806	181.0000
17.2899	175.0000
17.2991	168.0000
17.3083	188.0000
17.3175	167.0000
17.3267	161.0000
17.3360	175.0000
17.3452	168.0000
17.3544	159.0000
17.3636	159.0000
17.3729	171.0000
17.3821	144.0000
17.3913	169.0000
17.4005	170.0000
17.4097	151.0000
17.4190	155.0000
17.4282	185.0000
17.4374	186.0000
17.4466	145.0000
17.4559	191.0000
17.4651	166.0000
17.4743	162.0000
17.4835	161.0000
17.4927	160.0000
17.5020	161.0000
17.5112	166.0000
17.5204	153.0000
17.5296	159.0000
17.5389	190.0000
17.5481	146.0000
17.5573	165.0000
17.5665	172.0000
17.5758	140.0000
17.5850	154.0000
17.5942	167.0000
17.6034	168.0000
17.6126	165.0000
17.6219	165.0000
17.6311	143.0000
17.6403	170.0000
17.6495	180.0000
17.6588	154.0000
17.6680	158.0000
17.6772	172.0000
17.6864	163.0000
17.6956	174.0000
17.7049	153.0000
17.7141	150.0000
17.7233	166.0000
17.7325	179.0000
17.7418	163.0000
17.7510	155.0000
17.7602	152.0000
17.7694	174.0000
17.7787	160.0000
17.7879	142.0000
17.7971	168.0000
17.8063	169.0000
17.8155	155.0000
17.8248	155.0000
17.8340	152.0000
17.8432	175.0000
17.8524	178.0000
17.8617	144.0000
17.8709	162.0000
17.8801	163.0000
17.8893	148.0000
17.8985	159.0000
17.9078	155.0000
17.9170	149.0000
17.9262	155.0000
17.9354	172.0000
17.9447	143.0000
17.9539	167.0000
17.9631	168.0000
17.9723	147.0000
17.9816	149.0000
17.9908	137.0000
18.0000	152.0000
18.0092	153.0000
18.0184	164.0000
18.0277	152.0000
18.0369	140.0000
18.0461	169.0000
18.0553	155.0000
18.0646	147.0000
18.0738	142.0000
18.0830	144.0000
18.0922	161.0000
18.1014	168.0000
18.1107	157.0000
18.1199	148.0000
18.1291	168.0000
18.1383	153.0000
18.1476	166.0000
18.1568	153.0000
18.1660	141.0000
18.1752	149.0000
18.1844	145.0000
18.1937	151.0000
18.2029	161.0000
18.2121	147.0000
18.2213	137.0000
18.2306	167.0000
18.2398	155.0000
18.2490	168.0000
18.2582	148.0000
18.2675	152.0000
18.2767	145.0000
18.2859	148.0000
18.2951	131.0000
18.3043	134.0000
18.3136	174.0000
18.3228	134.0000
18.3320	144.0000
18.3412	170.0000
18.3505	157.0000
18.3597	126.0000
18.3689	146.0000
18.3781	156.0000
18.3873	173.0000
18.3966	131.0000
18.4058	168.0000
18.4150	142.0000
18.4242	142.0000
18.4335	156.0000
18.4427	164.0000
18.4519	152.0000
18.4611	143.0000
18.4704	149.0000
18.4796	152.0000
18.4888	145.0000
18.4980	146.0000
18.5072	159.0000
18.5165	152.0000
18.5257	162.0000
18.5349	145.0000
18.5441	143.0000
18.5534	160.0000
18.5626	149.0000
18.5718	173.0000
18.5810	149.0000
18.5902	156.0000
18.5995	162.0000
18.6087	135.0000
18.6179	146.0000
18.6271	153.0000
18.6364	149.0000
18.6456	158.0000
18.6548	155.0000
18.6640	122.0000
18.6732	117.0000
18.6825	157.0000
18.6917	151.0000
18.7009	166.0000
18.7101	159.0000
18.7194	167.0000
18.7286	142.0000
18.7378	139.0000
18.7470	171.0000
18.7563	145.0000
18.7655	138.0000
18.7747	155.0000
18.7839	163.0000
18.7931	153.0000
18.8024	152.0000
18.8116	138.0000
18.8208	121.0000
18.8300	164.0000
18.8393	142.0000
18.8485	173.0000
18.8577	161.0000
18.8669	154.0000
18.8761	164.0000
18.8854	155.0000
18.8946	141.0000
18.9038	135.0000
18.9130	147.0000
18.9223	171.0000
18.9315	115.0000
18.9407	148.0000
18.9499	153.0000
18.9592	164.0000
18.9684	153.0000
18.9776	154.0000
18.9868	155.0000
18.9960	143.0000
19.0053	147.0000
19.0145	165.0000
19.0237	168.0000
19.0329	153.0000
19.0422	149.0000
19.0514	152.0000
19.0606	158.0000
19.0698	132.0000
19.0790	140.0000
19.0883	158.0000
19.0975	146.0000
19.1067	163.0000
19.1159	154.0000
19.1252	146.0000
19.1344	120.0000
19.1436	164.0000
19.1528	154.0000
19.1621	149.0000
19.1713	140.0000
19.1805	137.0000
19.1897	146.0000
19.1989	153.0000
19.2082	177.0000
19.2174	153.0000
19.2266	140.0000
19.2358	145.0000
19.2451	160.0000
19.2543	166.0000
19.2635	166.0000
19.2727	175.0000
19.2819	148.0000
19.2912	151.0000
19.3004	160.0000
19.3096	153.0000
19.3188	137.0000
19.3281	154.0000
19.3373	164.0000
19.3465	154.0000
19.3557	148.0000
19.3649	142.0000
19.3742	161.0000
19.3834	136.0000
19.3926	128.0000
19.4018	135.0000
19.4111	148.0000
19.4203	129.0000
19.4295	151.0000
19.4387	181.0000
19.4480	147.0000
19.4572	149.0000
19.4664	166.0000
19.4756	145.0000
19.4848	154.0000
19.4941	150.0000
19.5033	157.0000
19.5125	165.0000
19.5217	149.0000
19.5310	198.0000
19.5402	170.0000
19.5494	145.0000
19.5586	139.0000
19.5678	135.0000
19.5771	120.0000
19.5863	157.0000
19.5955	158.0000
19.6047	153.0000
19.6140	165.0000
19.6232	136.0000
19.6324	158.0000
19.6416	144.0000
19.6509	146.0000
19.6601	159.0000
19.6693	135.0000
19.6785	131.0000
19.6877	133.0000
19.6970	148.0000
19.7062	139.0000
19.7154	148.0000
19.7246	170.0000
19.7339	167.0000
19.7431	152.0000
19.7523	147.0000
19.7615	149.0000
19.7707	160.0000
19.7800	140.0000
19.7892	146.0000
19.7984	146.0000
19.8076	169.0000
19.8169	157.0000
19.8261	159.0000
19.8353	160.0000
19.8445	170.0000
19.8537	154.0000
19.8630	166.0000
19.8722	155.0000
19.8814	175.0000
19.8906	163.0000
19.8999	159.0000
19.9091	158.0000
19.9183	142.0000
19.9275	154.0000
19.9368	136.0000
19.9460	178.0000
19.9552	147.0000
19.9644	152.0000
19.9736	146.0000
19.9829	161.0000
19.9921	145.0000
20.0013	156.0000
20.0105	139.0000
20.0198	147.0000
20.0290	141.0000
20.0382	138.0000
20.0474	154.0000
20.0566	141.0000
20.0659	161.0000
20.0751	152.0000
20.0843	152.0000
20.0935	158.0000
20.1028	147.0000
20.1120	185.0000
20.1212	152.0000
20.1304	129.0000
20.1397	148.0000
20.1489	162.0000
20.1581	143.0000
20.1673	144.0000
20.1765	137.0000
20.1858	149.0000
20.1950	149.0000
20.2042	168.0000
20.2134	149.0000
20.2227	157.0000
20.2319	177.0000
20.2411	176.0000
20.2503	139.0000
20.2595	163.0000
20.2688	163.0000
20.2780	166.0000
20.2872	151.0000
20.2964	131.0000
20.3057	157.0000
20.3149	152.0000
20.3241	175.0000
20.3333	148.0000
20.3426	155.0000
20.3518	132.0000
20.3610	158.0000
20.3702	144.0000
20.3794	172.0000
20.3887	130.0000
20.3979	148.0000
20.4071	171.0000
20.4163	142.0000
20.4256	156.0000
20.4348	150.0000
20.4440	171.0000
20.4532	144.0000
20.4624	177.0000
20.4717	160.0000
20.4809	167.0000
20.4901	145.0000
20.4993	162.0000
20.5086	148.0000
20.5178	169.0000
20.5270	153.0000
20.5362	169.0000
20.5454	143.0000
20.5547	138.0000
20.5639	156.0000
20.5731	180.0000
20.5823	147.0000
20.5916	182.0000
20.6008	170.0000
20.6100	174.0000
20.6192	162.0000
20.6285	142.0000
20.6377	155.0000
20.6469	147.0000
20.6561	149.0000
20.6653	163.0000
20.6746	134.0000
20.6838	142.0000
20.6930	164.0000
20.7022	152.0000
20.7115	154.0000
20.7207	175.0000
20.7299	158.0000
20.7391	181.0000
20.7483	168.0000
20.7576	171.0000
20.7668	128.0000
20.7760	187.0000
20.7852	155.0000
20.7945	157.0000
20.8037	154.0000
20.8129	175.0000
20.8221	163.0000
20.8314	155.0000
20.8406	184.0000
20.8498	159.0000
20.8590	153.0000
20.8682	164.0000
20.8775	169.0000
20.8867	179.0000
20.8959	160.0000
20.9051	174.0000
20.9144	166.0000
20.9236	162.0000
20.9328	166.0000
20.9420	136.0000
20.9512	162.0000
20.9605	171.0000
20.9697	187.0000
20.9789	163.0000
20.9881	192.0000
20.9974	180.0000
21.0066	153.0000
21.0158	168.0000
21.0250	156.0000
21.0342	174.0000
21.0435	155.0000
21.0527	188.0000
21.0619	168.0000
21.0711	161.0000
21.0804	167.0000
21.0896	150.0000
21.0988	170.0000
21.1080	173.0000
21.1173	149.0000
21.1265	175.0000
21.1357	167.0000
21.1449	161.0000
21.1541	183.0000
21.1634	186.0000
21.1726	190.0000
21.1818	199.0000
21.1910	192.0000
21.2003	182.0000
21.2095	197.0000
21.2187	218.0000
21.2279	237.0000
21.2371	237.0000
21.2464	292.0000
21.2556	419.0000
21.2648	645.0000
21.2740	967.0000
21.2833	1439.0000
21.2925	1578.0000
21.3017	1741.0000
21.3109	1673.0000
21.3202	1575.0000
21.3294	1027.0000
21.3386	655.0000
21.3478	418.0000
21.3570	306.0000
21.3663	275.0000
21.3755	315.0000
21.3847	405.0000
21.3939	487.0000
21.4032	718.0000
21.4124	875.0000
21.4216	1027.0000
21.4308	1048.0000
21.4400	1044.0000
21.4493	789.0000
21.4585	571.0000
21.4677	411.0000
21.4769	239.0000
21.4862	184.0000
21.4954	201.0000
21.5046	192.0000
21.5138	177.0000
21.5231	165.0000
21.5323	192.0000
21.5415	162.0000
21.5507	158.0000
21.5599	183.0000
21.5692	170.0000
21.5784	173.0000
21.5876	178.0000
21.5968	160.0000
21.6061	168.0000
21.6153	163.0000
21.6245	161.0000
21.6337	161.0000
21.6429	159.0000
21.6522	177.0000
21.6614	168.0000
21.6706	165.0000
21.6798	162.0000
21.6891	173.0000
21.6983	151.0000
21.7075	171.0000
21.7167	154.0000
21.7259	162.0000
21.7352	153.0000
21.7444	166.0000
21.7536	163.0000
21.7628	157.0000
21.7721	157.0000
21.7813	150.0000
21.7905	185.0000
21.7997	167.0000
21.8090	152.0000
21.8182	182.0000
21.8274	161.0000
21.8366	159.0000
21.8458	163.0000
21.8551	132.0000
21.8643	170.0000
21.8735	162.0000
21.8827	165.0000
21.8920	162.0000
21.9012	170.0000
21.9104	158.0000
21.9196	161.0000
21.9288	161.0000
21.9381	164.0000
21.9473	162.0000
21.9565	170.0000
21.9657	164.0000
21.9750	154.0000
21.9842	165.0000
21.9934	156.0000
22.0026	153.0000
22.0119	158.0000
22.0211	166.0000
22.0303	162.0000
22.0395	164.0000
22.0487	161.0000
22.0580	152.0000
22.0672	172.0000
22.0764	157.0000
22.0856	165.0000
22.0949	136.0000
22.1041	158.0000
22.1133	167.0000
22.1225	162.0000
22.1317	162.0000
22.1410	150.0000
22.1502	172.0000
22.1594	166.0000
22.1686	137.0000
22.1779	141.0000
22.1871	154.0000
22.1963	167.0000
22.2055	156.0000
22.2147	161.0000
22.2240	144.0000
22.2332	175.0000
22.2424	147.0000
22.2516	138.0000
22.2609	145.0000
22.2701	162.0000
22.2793	152.0000
22.2885	153.0000
22.2978	154.0000
22.3070	155.0000
22.3162	157.0000
22.3254	149.0000
22.3346	117.0000
22.3439	151.0000
22.3531	164.0000
22.3623	160.0000
22.3715	133.0000
22.3808	156.0000
22.3900	138.0000
22.3992	152.0000
22.4084	172.0000
22.4176	182.0000
22.4269	166.0000
22.4361	140.0000
22.4453	149.0000
22.4545	142.0000
22.4638	126.0000
22.4730	152.0000
22.4822	139.0000
22.4914	138.0000
22.5007	144.0000
22.5099	146.0000
22.5191	149.0000
22.5283	155.0000
22.5375	156.0000
22.5468	141.0000
22.5560	154.0000
22.5652	131.0000
22.5744	153.0000
22.5837	144.0000
22.5929	158.0000
22.6021	148.0000
22.6113	181.0000
22.6205	158.0000
22.6298	160.0000
22.6390	147.0000
22.6482	153.0000
22.6574	158.0000
22.6667	153.0000
22.6759	160.0000
22.6851	145.0000
22.6943	153.0000
22.7036	156.0000
22.7128	153.0000
22.7220	155.0000
22.7312	144.0000
22.7404	153.0000
22.7497	160.0000
22.7589	168.0000
22.7681	144.0000
22.7773	151.0000
22.7866	144.0000
22.7958	156.0000
22.8050	141.0000
22.8142	144.0000
22.8234	131.0000
22.8327	150.0000
22.8419	142.0000
22.8511	143.0000
22.8603	125.0000
22.8696	162.0000
22.8788	150.0000
22.8880	158.0000
22.8972	162.0000
22.9064	172.0000
22.9157	132.0000
22.9249	146.0000
22.9341	164.0000
22.9433	157.0000
22.9526	143.0000
22.9618	147.0000
22.9710	156.0000
22.9802	135.0000
22.9895	138.0000
22.9987	122.0000
23.0079	135.0000
23.0171	146.0000
23.0263	164.0000
23.0356	164.0000
23.0448	144.0000
23.0540	152.0000
23.0632	156.0000
23.0725	169.0000
23.0817	178.0000
23.0909	141.0000
23.1001	126.0000
23.1093	141.0000
23.1186	140.0000
23.1278	152.0000
23.1370	144.0000
23.1462	156.0000
23.1555	137.0000
23.1647	134.0000
23.1739	120.0000
23.1831	143.0000
23.1924	146.0000
23.2016	143.0000
23.2108	156.0000
23.2200	144.0000
23.2292	132.0000
23.2385	126.0000
23.2477	165.0000
23.2569	146.0000
23.2661	158.0000
23.2754	161.0000
23.2846	162.0000
23.2938	150.0000
23.3030	156.0000
23.3122	144.0000
23.3215	134.0000
23.3307	143.0000
23.3399	128.0000
23.3491	139.0000
23.3584	160.0000
23.3676	161.0000
23.3768	154.0000
23.3860	167.0000
23.3952	140.0000
23.4045	125.0000
23.4137	122.0000
23.4229	141.0000
23.4321	163.0000
23.4414	153.0000
23.4506	143.0000
23.4598	158.0000
23.4690	133.0000
23.4783	173.0000
23.4875	140.0000
23.4967	134.0000
23.5059	148.0000
23.5151	141.0000
23.5244	145.0000
23.5336	134.0000
23.5428	148.0000
23.5520	157.0000
23.5613	140.0000
23.5705	142.0000
23.5797	162.0000
23.5889	155.0000
23.5981	145.0000
23.6074	133.0000
23.6166	127.0000
23.6258	143.0000
23.6350	144.0000
23.6443	150.0000
23.6535	157.0000
23.6627	151.0000
23.6719	147.0000
23.6812	156.0000
23.6904	141.0000
23.6996	151.0000
23.7088	153.0000
23.7180	145.0000
23.7273	169.0000
23.7365	145.0000
23.7457	129.0000
23.7549	136.0000
23.7642	119.0000
23.7734	149.0000
23.7826	145.0000
23.7918	140.0000
23.8010	171.0000
23.8103	138.0000
23.8195	143.0000
23.8287	138.0000
23.8379	162.0000
23.8472	133.0000
23.8564	158.0000
23.8656	121.0000
23.8748	164.0000
23.8841	181.0000
23.8933	146.0000
23.9025	150.0000
23.9117	174.0000
23.9209	167.0000
23.9302	171.0000
23.9394	141.0000
23.9486	159.0000
23.9578	134.0000
23.9671	172.0000
23.9763	151.0000
23.9855	137.0000
23.9947	153.0000
24.0039	134.0000
24.0132	157.0000
24.0224	154.0000
24.0316	164.0000
24.0408	116.0000
24.0501	162.0000
24.0593	145.0000
24.0685	140.0000
24.0777	141.0000
24.0869	173.0000
24.0962	150.0000
24.1054	153.0000
24.1146	157.0000
24.1238	143.0000
24.1331	149.0000
24.1423	157.0000
24.1515	168.0000
24.1607	126.0000
24.1700	154.0000
24.1792	155.0000
24.1884	148.0000
24.1976	126.0000
24.2068	144.0000
24.2161	139.0000
24.2253	141.0000
24.2345	156.0000
24.2437	133.0000
24.2530	156.0000
24.2622	155.0000
24.2714	147.0000
24.2806	146.0000
24.2898	155.0000
24.2991	132.0000
24.3083	138.0000
24.3175	141.0000
24.3267	136.0000
24.3360	173.0000
24.3452	139.0000
24.3544	122.0000
24.3636	158.0000
24.3729	141.0000
24.3821	144.0000
24.3913	144.0000
24.4005	132.0000
24.4097	136.0000
24.4190	148.0000
24.4282	148.0000
24.4374	120.0000
24.4466	133.0000
24.4559	159.0000
24.4651	153.0000
24.4743	155.0000
24.4835	147.0000
24.4927	147.0000
24.5020	146.0000
24.5112	144.0000
24.5204	149.0000
24.5296	142.0000
24.5389	153.0000
24.5481	128.0000
24.5573	140.0000
24.5665	169.0000
24.5757	137.0000
24.5850	146.0000
24.5942	140.0000
24.6034	144.0000
24.6126	176.0000
24.6219	148.0000
24.6311	132.0000
24.6403	147.0000
24.6495	115.0000
24.6588	162.0000
24.6680	170.0000
24.6772	130.0000
24.6864	154.0000
24.6956	137.0000
24.7049	166.0000
24.7141	137.0000
24.7233	141.0000
24.7325	146.0000
24.7418	146.0000
24.7510	130.0000
24.7602	146.0000
24.7694	152.0000
24.7786	152.0000
24.7879	125.0000
24.7971	151.0000
24.8063	143.0000
24.8155	125.0000
24.8248	157.0000
24.8340	169.0000
24.8432	155.0000
24.8524	139.0000
24.8617	143.0000
24.8709	138.0000
24.8801	143.0000
24.8893	154.0000
24.8985	141.0000
24.9078	150.0000
24.9170	164.0000
24.9262	146.0000
24.9354	138.0000
24.9447	148.0000
24.9539	143.0000
24.9631	124.0000
24.9723	138.0000
24.9815	147.0000
24.9908	141.0000
25.0000	148.0000
25.0092	126.0000
25.0184	158.0000
25.0277	156.0000
25.0369	138.0000
25.0461	152.0000
25.0553	137.0000
25.0646	137.0000
25.0738	153.0000
25.0830	135.0000
25.0922	156.0000
25.1014	122.0000
25.1107	146.0000
25.1199	160.0000
25.1291	148.0000
25.1383	150.0000
25.1476	153.0000
25.1568	137.0000
25.1660	145.0000
25.1752	150.0000
25.1844	143.0000
25.1937	136.0000
25.2029	134.0000
25.2121	151.0000
25.2213	138.0000
25.2306	143.0000
25.2398	159.0000
25.2490	136.0000
25.2582	139.0000
25.2674	158.0000
25.2767	140.0000
25.2859	139.0000
25.2951	131.0000
25.3043	147.0000
25.3136	158.0000
25.3228	144.0000
25.3320	166.0000
25.3412	143.0000
25.3505	154.0000
25.3597	160.0000
25.3689	165.0000
25.3781	156.0000
25.3873	157.0000
25.3966	151.0000
25.4058	168.0000
25.4150	159.0000
25.4242	140.0000
25.4335	137.0000
25.4427	159.0000
25.4519	168.0000
25.4611	162.0000
25.4703	151.0000
25.4796	145.0000
25.4888	143.0000
25.4980	137.0000
25.5072	147.0000
25.5165	149.0000
25.5257	144.0000
25.5349	144.0000
25.5441	133.0000
25.5534	147.0000
25.5626	154.0000
25.5718	156.0000
25.5810	148.0000
25.5902	163.0000
25.5995	149.0000
25.6087	143.0000
25.6179	161.0000
25.6271	166.0000
25.6364	139.0000
25.6456	178.0000
25.6548	134.0000
25.6640	144.0000
25.6732	152.0000
25.6825	150.0000
25.6917	149.0000
25.7009	135.0000
25.7101	166.0000
25.7194	144.0000
25.7286	149.0000
25.7378	169.0000
25.7470	135.0000
25.7562	132.0000
25.7655	138.0000
25.7747	152.0000
25.7839	163.0000
25.7931	158.0000
25.8024	145.0000
25.8116	156.0000
25.8208	149.0000
25.8300	139.0000
25.8393	142.0000
25.8485	163.0000
25.8577	152.0000
25.8669	161.0000
25.8761	158.0000
25.8854	177.0000
25.8946	151.0000
25.9038	139.0000
25.9130	151.0000
25.9223	145.0000
25.9315	145.0000
25.9407	160.0000
25.9499	146.0000
25.9591	140.0000
25.9684	160.0000
25.9776	147.0000
25.9868	167.0000
25.9960	159.0000
26.0053	137.0000
26.0145	153.0000
26.0237	147.0000
26.0329	135.0000
26.0422	161.0000
26.0514	150.0000
26.0606	156.0000
26.0698	136.0000
26.0790	145.0000
26.0883	142.0000
26.0975	161.0000
26.1067	143.0000
26.1159	146.0000
26.1252	151.0000
26.1344	151.0000
26.1436	149.0000
26.1528	153.0000
26.1620	164.0000
26.1713	149.0000
26.1805	145.0000
26.1897	148.0000
26.1989	150.0000
26.2082	172.0000
26.2174	128.0000
26.2266	133.0000
26.2358	121.0000
26.2451	156.0000
26.2543	153.0000
26.2635	186.0000
26.2727	159.0000
26.2819	143.0000
26.2912	170.0000
26.3004	151.0000
26.3096	158.0000
26.3188	139.0000
26.3281	161.0000
26.3373	185.0000
26.3465	147.0000
26.3557	167.0000
26.3649	136.0000
26.3742	151.0000
26.3834	152.0000
26.3926	151.0000
26.4018	163.0000
26.4111	162.0000
26.4203	173.0000
26.4295	146.0000
26.4387	128.0000
26.4479	162.0000
26.4572	157.0000
26.4664	156.0000
26.4756	150.0000
26.4848	145.0000
26.4941	141.0000
26.5033	159.0000
26.5125	150.0000
26.5217	153.0000
26.5310	158.0000
26.5402	144.0000
26.5494	152.0000
26.5586	159.0000
26.5678	152.0000
26.5771	170.0000
26.5863	178.0000
26.5955	169.0000
26.6047	147.0000
26.6140	169.0000
26.6232	157.0000
26.6324	156.0000
26.6416	165.0000
26.6508	166.0000
26.6601	164.0000
26.6693	163.0000
26.6785	144.0000
26.6877	150.0000
26.6970	162.0000
26.7062	175.0000
26.7154	127.0000
26.7246	165.0000
26.7339	164.0000
26.7431	169.0000
26.7523	153.0000
26.7615	130.0000
26.7707	168.0000
26.7800	132.0000
26.7892	148.0000
26.7984	169.0000
26.8076	144.0000
26.8169	140.0000
26.8261	156.0000
26.8353	194.0000
26.8445	152.0000
26.8537	160.0000
26.8630	145.0000
26.8722	159.0000
26.8814	162.0000
26.8906	187.0000
26.8999	155.0000
26.9091	159.0000
26.9183	151.0000
26.9275	159.0000
26.9367	139.0000
26.9460	156.0000
26.9552	161.0000
26.9644	149.0000
26.9736	170.0000
26.9829	163.0000
26.9921	158.0000
27.0013	164.0000
27.0105	185.0000
27.0198	150.0000
27.0290	172.0000
27.0382	195.0000
27.0474	159.0000
27.0566	136.0000
27.0659	165.0000
27.0751	158.0000
27.0843	134.0000
27.0935	144.0000
27.1028	166.0000
27.1120	165.0000
27.1212	165.0000
27.1304	158.0000
27.1396	173.0000
27.1489	188.0000
27.1581	162.0000
27.1673	161.0000
27.1765	164.0000
27.1858	167.0000
27.1950	147.0000
27.2042	158.0000
27.2134	151.0000
27.2227	151.0000
27.2319	186.0000
27.2411	155.0000
27.2503	154.0000
27.2595	164.0000
27.2688	146.0000
27.2780	170.0000
27.2872	157.0000
27.2964	142.0000
27.3057	180.0000
27.3149	144.0000
27.3241	156.0000
27.3333	158.0000
27.3425	166.0000
27.3518	180.0000
27.3610	165.0000
27.3702	172.0000
27.3794	148.0000
27.3887	153.0000
27.3979	160.0000
27.4071	153.0000
27.4163	138.0000
27.4256	150.0000
27.4348	162.0000
27.4440	167.0000
27.4532	156.0000
27.4624	174.0000
27.4717	155.0000
27.4809	149.0000
27.4901	137.0000
27.4993	154.0000
27.5086	186.0000
27.5178	159.0000
27.5270	161.0000
27.5362	151.0000
27.5454	167.0000
27.5547	164.0000
27.5639	151.0000
27.5731	178.0000
27.5823	157.0000
27.5916	145.0000
27.6008	170.0000
27.6100	172.0000
27.6192	154.0000
27.6284	173.0000
27.6377	156.0000
27.6469	166.0000
27.6561	141.0000
27.6653	174.0000
27.6746	152.0000
27.6838	150.0000
27.6930	174.0000
27.7022	161.0000
27.7115	164.0000
27.7207	164.0000
27.7299	159.0000
27.7391	176.0000
27.7483	142.0000
27.7576	169.0000
27.7668	189.0000
27.7760	178.0000
27.7852	167.0000
27.7945	153.0000
27.8037	180.0000
27.8129	149.0000
27.8221	160.0000
27.8313	174.0000
27.8406	168.0000
27.8498	167.0000
27.8590	165.0000
27.8682	152.0000
27.8775	146.0000
27.8867	160.0000
27.8959	172.0000
27.9051	152.0000
27.9144	157.0000
27.9236	154.0000
27.9328	179.0000
27.9420	175.0000
27.9512	158.0000
27.9605	172.0000
27.9697	157.0000
27.9789	175.0000
27.9881	179.0000
27.9974	175.0000
28.0066	194.0000
28.0158	180.0000
28.0250	185.0000
28.0342	156.0000
28.0435	186.0000
28.0527	158.0000
28.0619	154.0000
28.0711	158.0000
28.0804	165.0000
28.0896	170.0000
28.0988	159.0000
28.1080	166.0000
28.1172	152.0000
28.1265	185.0000
28.1357	163.0000
28.1449	142.0000
28.1541	147.0000
28.1634	181.0000
28.1726	160.0000
28.1818	165.0000
28.1910	180.0000
28.2003	177.0000
28.2095	168.0000
28.2187	162.0000
28.2279	180.0000
28.2371	180.0000
28.2464	138.0000
28.2556	148.0000
28.2648	179.0000
28.2740	178.0000
28.2833	156.0000
28.2925	198.0000
28.3017	163.0000
28.3109	164.0000
28.3201	165.0000
28.3294	161.0000
28.3386	177.0000
28.3478	147.0000
28.3570	173.0000
28.3663	153.0000
28.3755	175.0000
28.3847	196.0000
28.3939	146.0000
28.4032	170.0000
28.4124	163.0000
28.4216	168.0000
28.4308	143.0000
28.4400	179.0000
28.4493	165.0000
28.4585	137.0000
28.4677	155.0000
28.4769	169.0000
28.4862	152.0000
28.4954	197.0000
28.5046	167.0000
28.5138	156.0000
28.5230	179.0000
28.5323	161.0000
28.5415	149.0000
28.5507	164.0000
28.5599	163.0000
28.5692	154.0000
28.5784	165.0000
28.5876	165.0000
28.5968	175.0000
28.6061	184.0000
28.6153	151.0000
28.6245	154.0000
28.6337	189.0000
28.6429	155.0000
28.6522	183.0000
28.6614	158.0000
28.6706	170.0000
28.6798	165.0000
28.6891	176.0000
28.6983	158.0000
28.7075	178.0000
28.7167	197.0000
28.7259	164.0000
28.7352	167.0000
28.7444	161.0000
28.7536	172.0000
28.7628	167.0000
28.7721	172.0000
28.7813	159.0000
28.7905	166.0000
28.7997	185.0000
28.8089	190.0000
28.8182	163.0000
28.8274	168.0000
28.8366	181.0000
28.8458	153.0000
28.8551	175.0000
28.8643	160.0000
28.8735	148.0000
28.8827	178.0000
28.8920	161.0000
28.9012	154.0000
28.9104	150.0000
28.9196	164.0000
28.9288	171.0000
28.9381	173.0000
28.9473	162.0000
28.9565	181.0000
28.9657	164.0000
28.9750	170.0000
28.9842	172.0000
28.9934	162.0000
29.0026	183.0000
29.0118	160.0000
29.0211	166.0000
29.0303	159.0000
29.0395	174.0000
29.0487	159.0000
29.0580	175.0000
29.0672	174.0000
29.0764	155.0000
29.0856	163.0000
29.0949	199.0000
29.1041	171.0000
29.1133	168.0000
29.1225	160.0000
29.1317	170.0000
29.1410	191.0000
29.1502	169.0000
29.1594	177.0000
29.1686	169.0000
29.1779	152.0000
29.1871	166.0000
29.1963	159.0000
29.2055	165.0000
29.2147	172.0000
29.2240	142.0000
29.2332	177.0000
29.2424	176.0000
29.2516	180.0000
29.2609	186.0000
29.2701	199.0000
29.2793	178.0000
29.2885	167.0000
29.2977	171.0000
29.3070	163.0000
29.3162	150.0000
29.3254	191.0000
29.3346	159.0000
29.3439	157.0000
29.3531	156.0000
29.3623	154.0000
29.3715	168.0000
29.3808	150.0000
29.3900	174.0000
29.3992	176.0000
29.4084	162.0000
29.4176	167.0000
29.4269	171.0000
29.4361	178.0000
29.4453	175.0000
29.4545	174.0000
29.4638	188.0000
29.4730	162.0000
29.4822	183.0000
29.4914	162.0000
29.5006	165.0000
29.5099	167.0000
29.5191	172.0000
29.5283	169.0000
29.5375	162.0000
29.5468	176.0000
29.5560	187.0000
29.5652	158.0000
29.5744	159.0000
29.5837	186.0000
29.5929	168.0000
29.6021	173.0000
29.6113	163.0000
29.6205	178.0000
29.6298	176.0000
29.6390	167.0000
29.6482	153.0000
29.6574	191.0000
29.6667	151.0000
29.6759	161.0000
29.6851	177.0000
29.6943	180.0000
29.7035	170.0000
29.7128	170.0000
29.7220	183.0000
29.7312	169.0000
29.7404	156.0000
29.7497	162.0000
29.7589	177.0000
29.7681	177.0000
29.7773	157.0000
29.7866	168.0000
29.7958	185.0000
29.8050	156.0000
29.8142	186.0000
29.8234	166.0000
29.8327	173.0000
29.8419	170.0000
29.8511	165.0000
29.8603	152.0000
29.8696	179.0000
29.8788	162.0000
29.8880	186.0000
29.8972	165.0000
29.9064	167.0000
29.9157	176.0000
29.9249	173.0000
29.9341	176.0000
29.9433	179.0000
29.9526	165.0000
29.9618	165.0000
29.9710	150.0000
29.9802	175.0000
29.9894	159.0000
29.9987	173.0000
30.0079	160.0000
30.0171	168.0000
30.0263	163.0000
30.0356	163.0000
30.0448	155.0000
30.0540	151.0000
30.0632	151.0000
30.0725	162.0000
30.0817	168.0000
30.0909	185.0000
30.1001	151.0000
30.1093	165.0000
30.1186	161.0000
30.1278	168.0000
30.1370	160.0000
30.1462	181.0000
30.1555	148.0000
30.1647	164.0000
30.1739	176.0000
30.1831	167.0000
30.1923	158.0000
30.2016	185.0000
30.2108	174.0000
30.2200	151.0000
30.2292	165.0000
30.2385	184.0000
30.2477	157.0000
30.2569	160.0000
30.2661	169.0000
30.2754	141.0000
30.2846	169.0000
30.2938	180.0000
30.3030	149.0000
30.3122	144.0000
30.3215	169.0000
30.3307	161.0000
30.3399	154.0000
30.3491	187.0000
30.3584	166.0000
30.3676	150.0000
30.3768	161.0000
30.3860	165.0000
30.3952	187.0000
30.4045	176.0000
30.4137	171.0000
30.4229	164.0000
30.4321	162.0000
30.4414	197.0000
30.4506	135.0000
30.4598	160.0000
30.4690	150.0000
30.4782	171.0000
30.4875	157.0000
30.4967	161.0000
30.5059	182.0000
30.5151	144.0000
30.5244	192.0000
30.5336	179.0000
30.5428	182.0000
30.5520	176.0000
30.5613	145.0000
30.5705	169.0000
30.5797	168.0000
30.5889	174.0000
30.5981	149.0000
30.6074	149.0000
30.6166	165.0000
30.6258	149.0000
30.6350	155.0000
30.6443	167.0000
30.6535	184.0000
30.6627	170.0000
30.6719	171.0000
30.6811	179.0000
30.6904	175.0000
30.6996	167.0000
30.7088	184.0000
30.7180	175.0000
30.7273	158.0000
30.7365	192.0000
30.7457	168.0000
30.7549	138.0000
30.7642	169.0000
30.7734	139.0000
30.7826	171.0000
30.7918	194.0000
30.8010	187.0000
30.8103	164.0000
30.8195	139.0000
30.8287	170.0000
30.8379	151.0000
30.8472	170.0000
30.8564	201.0000
30.8656	162.0000
30.8748	173.0000
30.8840	171.0000
30.8933	146.0000
30.9025	173.0000
30.9117	140.0000
30.9209	192.0000
30.9302	169.0000
30.9394	168.0000
30.9486	168.0000
30.9578	166.0000
30.9671	180.0000
30.9763	174.0000
30.9855	174.0000
30.9947	194.0000
31.0039	170.0000
31.0132	183.0000
31.0224	150.0000
31.0316	171.0000
31.0408	181.0000
31.0501	161.0000
31.0593	153.0000
31.0685	181.0000
31.0777	182.0000
31.0869	178.0000
31.0962	150.0000
31.1054	183.0000
31.1146	164.0000
31.1238	188.0000
31.1331	184.0000
31.1423	195.0000
31.1515	165.0000
31.1607	160.0000
31.1699	166.0000
31.1792	175.0000
31.1884	183.0000
31.1976	176.0000
31.2068	162.0000
31.2161	168.0000
31.2253	172.0000
31.2345	169.0000
31.2437	158.0000
31.2530	173.0000
31.2622	174.0000
31.2714	163.0000
31.2806	176.0000
31.2898	179.0000
31.2991	173.0000
31.3083	178.0000
31.3175	163.0000
31.3267	170.0000
31.3360	173.0000
31.3452	166.0000
31.3544	158.0000
31.3636	194.0000
31.3728	159.0000
31.3821	154.0000
31.3913	159.0000
31.4005	149.0000
31.4097	148.0000
31.4190	169.0000
31.4282	190.0000
31.4374	161.0000
31.4466	181.0000
31.4559	162.0000
31.4651	167.0000
31.4743	170.0000
31.4835	184.0000
31.4927	155.0000
31.5020	158.0000
31.5112	182.0000
31.5204	193.0000
31.5296	167.0000
31.5389	139.0000
31.5481	158.0000
31.5573	167.0000
31.5665	161.0000
31.5757	160.0000
31.5850	136.0000
31.5942	188.0000
31.6034	168.0000
31.6126	191.0000
31.6219	160.0000
31.6311	167.0000
31.6403	163.0000
31.6495	154.0000
31.6587	173.0000
31.6680	145.0000
31.6772	152.0000
31.6864	136.0000
31.6956	168.0000
31.7049	173.0000
31.7141	156.0000
31.7233	150.0000
31.7325	162.0000
31.7418	140.0000
31.7510	160.0000
31.7602	152.0000
31.7694	178.0000
31.7786	152.0000
31.7879	167.0000
31.7971	188.0000
31.8063	165.0000
31.8155	161.0000
31.8248	169.0000
31.8340	165.0000
31.8432	154.0000
31.8524	160.0000
31.8616	169.0000
31.8709	179.0000
31.8801	165.0000
31.8893	165.0000
31.8985	162.0000
31.9078	194.0000
31.9170	156.0000
31.9262	172.0000
31.9354	149.0000
31.9447	167.0000
31.9539	190.0000
31.9631	168.0000
31.9723	165.0000
31.9815	163.0000
31.9908	180.0000
32.0000	154.0000
32.0092	178.0000
32.0184	162.0000
32.0277	167.0000
32.0369	156.0000
32.0461	148.0000
32.0553	159.0000
32.0645	164.0000
32.0738	142.0000
32.0830	183.0000
32.0922	173.0000
32.1014	181.0000
32.1107	163.0000
32.1199	192.0000
32.1291	175.0000
32.1383	168.0000
32.1476	177.0000
32.1568	189.0000
32.1660	177.0000
32.1752	184.0000
32.1844	180.0000
32.1937	146.0000
32.2029	169.0000
32.2121	174.0000
32.2213	155.0000
32.2306	146.0000
32.2398	188.0000
32.2490	165.0000
32.2582	185.0000
32.2674	179.0000
32.2767	174.0000
32.2859	182.0000
32.2951	171.0000
32.3043	163.0000
32.3136	174.0000
32.3228	172.0000
32.3320	171.0000
32.3412	177.0000
32.3504	170.0000
32.3597	158.0000
32.3689	155.0000
32.3781	164.0000
32.3873	176.0000
32.3966	158.0000
32.4058	170.0000
32.4150	171.0000
32.4242	166.0000
32.4335	177.0000
32.4427	147.0000
32.4519	163.0000
32.4611	166.0000
32.4703	171.0000
32.4796	172.0000
32.4888	171.0000
32.4980	180.0000
32.5072	182.0000
32.5165	189.0000
32.5257	127.0000
32.5349	173.0000
32.5441	162.0000
32.5533	182.0000
32.5626	164.0000
32.5718	163.0000
32.5810	179.0000
32.5902	157.0000
32.5995	163.0000
32.6087	175.0000
32.6179	167.0000
32.6271	198.0000
32.6364	170.0000
32.6456	172.0000
32.6548	186.0000
32.6640	185.0000
32.6732	164.0000
32.6825	174.0000
32.6917	173.0000
32.7009	148.0000
32.7101	166.0000
32.7194	195.0000
32.7286	173.0000
32.7378	154.0000
32.7470	157.0000
32.7562	172.0000
32.7655	177.0000
32.7747	181.0000
32.7839	172.0000
32.7931	157.0000
32.8024	191.0000
32.8116	174.0000
32.8208	159.0000
32.8300	188.0000
32.8392	191.0000
32.8485	167.0000
32.8577	169.0000
32.8669	189.0000
32.8761	156.0000
32.8854	171.0000
32.8946	155.0000
32.9038	164.0000
32.9130	156.0000
32.9223	155.0000
32.9315	166.0000
32.9407	185.0000
32.9499	189.0000
32.9591	194.0000
32.9684	197.0000
32.9776	171.0000
32.9868	171.0000
32.9960	169.0000
33.0053	168.0000
33.0145	186.0000
33.0237	174.0000
33.0329	211.0000
33.0421	250.0000
33.0514	284.0000
33.0606	350.0000
33.0698	374.0000
33.0790	504.0000
33.0883	502.0000
33.0975	474.0000
33.1067	510.0000
33.1159	431.0000
33.1252	382.0000
33.1344	253.0000
33.1436	209.0000
33.1528	215.0000
33.1620	173.0000
33.1713	190.0000
33.1805	165.0000
33.1897	162.0000
33.1989	168.0000
33.2082	164.0000
33.2174	184.0000
33.2266	162.0000
33.2358	225.0000
33.2450	199.0000
33.2543	242.0000
33.2635	258.0000
33.2727	300.0000
33.2819	343.0000
33.2912	374.0000
33.3004	367.0000
33.3096	314.0000
33.3188	300.0000
33.3281	260.0000
33.3373	239.0000
33.3465	181.0000
33.3557	195.0000
33.3649	169.0000
33.3742	173.0000
33.3834	169.0000
33.3926	157.0000
33.4018	174.0000
33.4111	183.0000
33.4203	158.0000
33.4295	187.0000
33.4387	178.0000
33.4479	171.0000
33.4572	173.0000
33.4664	185.0000
33.4756	207.0000
33.4848	156.0000
33.4941	163.0000
33.5033	185.0000
33.5125	188.0000
33.5217	176.0000
33.5309	158.0000
33.5402	155.0000
33.5494	190.0000
33.5586	176.0000
33.5678	175.0000
33.5771	174.0000
33.5863	164.0000
33.5955	172.0000
33.6047	178.0000
33.6140	160.0000
33.6232	184.0000
33.6324	180.0000
33.6416	168.0000
33.6508	191.0000
33.6601	144.0000
33.6693	190.0000
33.6785	178.0000
33.6877	162.0000
33.6970	175.0000
33.7062	157.0000
33.7154	175.0000
33.7246	172.0000
33.7338	173.0000
33.7431	154.0000
33.7523	164.0000
33.7615	164.0000
33.7707	160.0000
33.7800	161.0000
33.7892	162.0000
33.7984	158.0000
33.8076	167.0000
33.8169	160.0000
33.8261	171.0000
33.8353	166.0000
33.8445	190.0000
33.8537	147.0000
33.8630	168.0000
33.8722	153.0000
33.8814	159.0000
33.8906	186.0000
33.8999	171.0000
33.9091	184.0000
33.9183	161.0000
33.9275	147.0000
33.9367	176.0000
33.9460	184.0000
33.9552	154.0000
33.9644	148.0000
33.9736	170.0000
33.9829	170.0000
33.9921	155.0000
34.0013	167.0000
34.0105	171.0000
34.0197	165.0000
34.0290	155.0000
34.0382	168.0000
34.0474	166.0000
34.0566	177.0000
34.0659	162.0000
34.0751	198.0000
34.0843	136.0000
34.0935	169.0000
34.1028	155.0000
34.1120	156.0000
34.1212	157.0000
34.1304	154.0000
34.1396	139.0000
34.1489	179.0000
34.1581	152.0000
34.1673	170.0000
34.1765	151.0000
34.1858	160.0000
34.1950	155.0000
34.2042	155.0000
34.2134	181.0000
34.2226	158.0000
34.2319	163.0000
34.2411	134.0000
34.2503	186.0000
34.2595	156.0000
34.2688	159.0000
34.2780	163.0000
34.2872	144.0000
34.2964	171.0000
34.3057	157.0000
34.3149	145.0000
34.3241	151.0000
34.3333	149.0000
34.3425	167.0000
34.3518	140.0000
34.3610	143.0000
34.3702	152.0000
34.3794	155.0000
34.3887	169.0000
34.3979	153.0000
34.4071	184.0000
34.4163	169.0000
34.4255	141.0000
34.4348	157.0000
34.4440	154.0000
34.4532	136.0000
34.4624	150.0000
34.4717	165.0000
34.4809	150.0000
34.4901	139.0000
34.4993	137.0000
34.5086	146.0000
34.5178	150.0000
34.5270	175.0000
34.5362	153.0000
34.5454	147.0000
34.5547	161.0000
34.5639	177.0000
34.5731	148.0000
34.5823	135.0000
34.5916	140.0000
34.6008	143.0000
34.6100	148.0000
34.6192	157.0000
34.6284	129.0000
34.6377	129.0000
34.6469	150.0000
34.6561	152.0000
34.6653	140.0000
34.6746	156.0000
34.6838	146.0000
34.6930	159.0000
34.7022	168.0000
34.7114	150.0000
34.7207	173.0000
34.7299	152.0000
34.7391	153.0000
34.7483	162.0000
34.7576	163.0000
34.7668	146.0000
34.7760	151.0000
34.7852	151.0000
34.7945	151.0000
34.8037	136.0000
34.8129	178.0000
34.8221	150.0000
34.8313	150.0000
34.8406	144.0000
34.8498	159.0000
34.8590	146.0000
34.8682	146.0000
34.8775	147.0000
34.8867	160.0000
34.8959	132.0000
34.9051	146.0000
34.9143	146.0000
34.9236	143.0000
34.9328	141.0000
34.9420	133.0000
34.9512	160.0000
34.9605	156.0000
34.9697	180.0000
34.9789	144.0000
34.9881	161.0000
34.9974	134.0000
35.0066	149.0000
35.0158	141.0000
35.0250	134.0000
35.0342	137.0000
35.0435	154.0000
35.0527	145.0000
35.0619	164.0000
35.0711	162.0000
35.0804	162.0000
35.0896	147.0000
35.0988	153.0000
35.1080	151.0000
35.1172	114.0000
35.1265	145.0000
35.1357	146.0000
35.1449	134.0000
35.1541	153.0000
35.1634	148.0000
35.1726	140.0000
35.1818	138.0000
35.1910	133.0000
35.2002	137.0000
35.2095	137.0000
35.2187	151.0000
35.2279	139.0000
35.2371	148.0000
35.2464	144.0000
35.2556	140.0000
35.2648	132.0000
35.2740	124.0000
35.2833	163.0000
35.2925	144.0000
35.3017	130.0000
35.3109	144.0000
35.3201	124.0000
35.3294	141.0000
35.3386	133.0000
35.3478	162.0000
35.3570	125.0000
35.3663	136.0000
35.3755	144.0000
35.3847	134.0000
35.3939	130.0000
35.4031	141.0000
35.4124	130.0000
35.4216	136.0000
35.4308	126.0000
35.4400	155.0000
35.4493	153.0000
35.4585	142.0000
35.4677	146.0000
35.4769	145.0000
35.4862	143.0000
35.4954	131.0000
35.5046	141.0000
35.5138	143.0000
35.5230	134.0000
35.5323	132.0000
35.5415	125.0000
35.5507	145.0000
35.5599	141.0000
35.5692	123.0000
35.5784	148.0000
35.5876	134.0000
35.5968	137.0000
35.6060	151.0000
35.6153	120.0000
35.6245	116.0000
35.6337	146.0000
35.6429	150.0000
35.6522	160.0000
35.6614	149.0000
35.6706	144.0000
35.6798	142.0000
35.6891	123.0000
35.6983	100.0000
35.7075	125.0000
35.7167	115.0000
35.7259	119.0000
35.7352	141.0000
35.7444	116.0000
35.7536	132.0000
35.7628	116.0000
35.7721	132.0000
35.7813	114.0000
35.7905	115.0000
35.7997	131.0000
35.8089	114.0000
35.8182	112.0000
35.8274	127.0000
35.8366	106.0000
35.8458	143.0000
35.8551	129.0000
35.8643	119.0000
35.8735	131.0000
35.8827	125.0000
35.8919	121.0000
35.9012	118.0000
35.9104	124.0000
35.9196	127.0000
35.9288	106.0000
35.9381	131.0000
35.9473	126.0000
35.9565	120.0000
35.9657	110.0000
35.9750	129.0000
35.9842	121.0000
35.9934	128.0000
36.0026	125.0000
36.0118	111.0000
36.0211	126.0000
36.0303	143.0000
36.0395	116.0000
36.0487	127.0000
36.0580	112.0000
36.0672	115.0000
36.0764	119.0000
36.0856	132.0000
36.0948	134.0000
36.1041	122.0000
36.1133	128.0000
36.1225	117.0000
36.1317	110.0000
36.1410	100.0000
36.1502	115.0000
36.1594	139.0000
36.1686	121.0000
36.1779	113.0000
36.1871	134.0000
36.1963	116.0000
36.2055	98.0000
36.2147	110.0000
36.2240	110.0000
36.2332	118.0000
36.2424	114.0000
36.2516	128.0000
36.2609	133.0000
36.2701	137.0000
36.2793	104.0000
36.2885	117.0000
36.2977	122.0000
36.3070	110.0000
36.3162	123.0000
36.3254	116.0000
36.3346	119.0000
36.3439	105.0000
36.3531	97.0000
36.3623	125.0000
36.3715	114.0000
36.3807	122.0000
36.3900	98.0000
36.3992	121.0000
36.4084	117.0000
36.4176	93.0000
36.4269	118.0000
36.4361	122.0000
36.4453	105.0000
36.4545	124.0000
36.4638	126.0000
36.4730	114.0000
36.4822	124.0000
36.4914	97.0000
36.5006	102.0000
36.5099	117.0000
36.5191	115.0000
36.5283	110.0000
36.5375	119.0000
36.5468	126.0000
36.5560	95.0000
36.5652	120.0000
36.5744	121.0000
36.5836	108.0000
36.5929	107.0000
36.6021	105.0000
36.6113	118.0000
36.6205	123.0000
36.6298	110.0000
36.6390	97.0000
36.6482	111.0000
36.6574	108.0000
36.6667	115.0000
36.6759	97.0000
36.6851	94.0000
36.6943	110.0000
36.7035	100.0000
36.7128	110.0000
36.7220	98.0000
36.7312	120.0000
36.7404	101.0000
36.7497	106.0000
36.7589	115.0000
36.7681	104.0000
36.7773	100.0000
36.7865	123.0000
36.7958	89.0000
36.8050	116.0000
36.8142	95.0000
36.8234	104.0000
36.8327	99.0000
36.8419	97.0000
36.8511	99.0000
36.8603	116.0000
36.8696	120.0000
36.8788	101.0000
36.8880	114.0000
36.8972	105.0000
36.9064	88.0000
36.9157	95.0000
36.9249	99.0000
36.9341	92.0000
36.9433	115.0000
36.9526	86.0000
36.9618	112.0000
36.9710	108.0000
36.9802	116.0000
36.9894	100.0000
36.9987	101.0000
37.0079	110.0000
37.0171	89.0000
37.0263	103.0000
37.0356	88.0000
37.0448	115.0000
37.0540	97.0000
37.0632	93.0000
37.0724	99.0000
37.0817	111.0000
37.0909	98.0000
37.1001	83.0000
37.1093	111.0000
37.1186	100.0000
37.1278	93.0000
37.1370	95.0000
37.1462	91.0000
37.1555	121.0000
37.1647	105.0000
37.1739	104.0000
37.1831	123.0000
37.1923	95.0000
37.2016	89.0000
37.2108	87.0000
37.2200	89.0000
37.2292	88.0000
37.2385	112.0000
37.2477	89.0000
37.2569	106.0000
37.2661	97.0000
37.2753	101.0000
37.2846	106.0000
37.2938	103.0000
37.3030	114.0000
37.3122	109.0000
37.3215	108.0000
37.3307	85.0000
37.3399	100.0000
37.3491	102.0000
37.3584	106.0000
37.3676	85.0000
37.3768	94.0000
37.3860	100.0000
37.3952	107.0000
37.4045	101.0000
37.4137	101.0000
37.4229	107.0000
37.4321	108.0000
37.4414	97.0000
37.4506	100.0000
37.4598	97.0000
37.4690	103.0000
37.4782	99.0000
37.4875	113.0000
37.4967	89.0000
37.5059	88.0000
37.5151	87.0000
37.5244	95.0000
37.5336	91.0000
37.5428	89.0000
37.5520	93.0000
37.5612	103.0000
37.5705	111.0000
37.5797	99.0000
37.5889	96.0000
37.5981	97.0000
37.6074	91.0000
37.6166	97.0000
37.6258	102.0000
37.6350	102.0000
37.6443	125.0000
37.6535	87.0000
37.6627	87.0000
37.6719	94.0000
37.6811	101.0000
37.6904	100.0000
37.6996	80.0000
37.7088	93.0000
37.7180	104.0000
37.7273	99.0000
37.7365	95.0000
37.7457	94.0000
37.7549	109.0000
37.7641	104.0000
37.7734	97.0000
37.7826	84.0000
37.7918	100.0000
37.8010	91.0000
37.8103	82.0000
37.8195	100.0000
37.8287	97.0000
37.8379	92.0000
37.8472	80.0000
37.8564	94.0000
37.8656	77.0000
37.8748	87.0000
37.8840	81.0000
37.8933	111.0000
37.9025	107.0000
37.9117	92.0000
37.9209	97.0000
37.9302	81.0000
37.9394	86.0000
37.9486	90.0000
37.9578	98.0000
37.9670	80.0000
37.9763	104.0000
37.9855	111.0000
37.9947	77.0000
38.0039	107.0000
38.0132	95.0000
38.0224	98.0000
38.0316	97.0000
38.0408	102.0000
38.0501	102.0000
38.0593	98.0000
38.0685	110.0000
38.0777	88.0000
38.0869	87.0000
38.0962	88.0000
38.1054	89.0000
38.1146	102.0000
38.1238	94.0000
38.1331	96.0000
38.1423	102.0000
38.1515	95.0000
38.1607	87.0000
38.1699	92.0000
38.1792	101.0000
38.1884	79.0000
38.1976	90.0000
38.2068	82.0000
38.2161	81.0000
38.2253	81.0000
38.2345	90.0000
38.2437	102.0000
38.2529	90.0000
38.2622	98.0000
38.2714	72.0000
38.2806	73.0000
38.2898	85.0000
38.2991	107.0000
38.3083	101.0000
38.3175	103.0000
38.3267	94.0000
38.3360	101.0000
38.3452	86.0000
38.3544	85.0000
38.3636	84.0000
38.3728	71.0000
38.3821	95.0000
38.3913	92.0000
38.4005	104.0000
38.4097	99.0000
38.4190	91.0000
38.4282	92.0000
38.4374	89.0000
38.4466	88.0000
38.4558	91.0000
38.4651	84.0000
38.4743	110.0000
38.4835	90.0000
38.4927	88.0000
38.5020	105.0000
38.5112	82.0000
38.5204	76.0000
38.5296	100.0000
38.5389	103.0000
38.5481	96.0000
38.5573	97.0000
38.5665	85.0000
38.5757	86.0000
38.5850	84.0000
38.5942	86.0000
38.6034	90.0000
38.6126	94.0000
38.6219	88.0000
38.6311	85.0000
38.6403	96.0000
38.6495	84.0000
38.6587	74.0000
38.6680	93.0000
38.6772	99.0000
38.6864	94.0000
38.6956	91.0000
38.7049	87.0000
38.7141	83.0000
38.7233	97.0000
38.7325	79.0000
38.7417	79.0000
38.7510	90.0000
38.7602	94.0000
38.7694	73.0000
38.7786	87.0000
38.7879	99.0000
38.7971	87.0000
38.8063	79.0000
38.8155	85.0000
38.8248	91.0000
38.8340	85.0000
38.8432	86.0000
38.8524	92.0000
38.8616	78.0000
38.8709	87.0000
38.8801	80.0000
38.8893	98.0000
38.8985	77.0000
38.9078	82.0000
38.9170	93.0000
38.9262	87.0000
38.9354	85.0000
38.9446	103.0000
38.9539	101.0000
38.9631	87.0000
38.9723	79.0000
38.9815	83.0000
38.9908	76.0000
39.0000	97.0000
39.0092	81.0000
39.0184	67.0000
39.0277	91.0000
39.0369	88.0000
39.0461	72.0000
39.0553	75.0000
39.0645	87.0000
39.0738	69.0000
39.0830	80.0000
39.0922	90.0000
39.1014	67.0000
39.1107	93.0000
39.1199	91.0000
39.1291	77.0000
39.1383	95.0000
39.1475	89.0000
39.1568	80.0000
39.1660	95.0000
39.1752	86.0000
39.1844	92.0000
39.1937	85.0000
39.2029	91.0000
39.2121	84.0000
39.2213	81.0000
39.2306	77.0000
39.2398	78.0000
39.2490	92.0000
39.2582	95.0000
39.2674	68.0000
39.2767	83.0000
39.2859	85.0000
39.2951	90.0000
39.3043	101.0000
39.3136	86.0000
39.3228	99.0000
39.3320	93.0000
39.3412	94.0000
39.3504	69.0000
39.3597	97.0000
39.3689	100.0000
39.3781	94.0000
39.3873	74.0000
39.3966	80.0000
39.4058	92.0000
39.4150	89.0000
39.4242	66.0000
39.4334	87.0000
39.4427	98.0000
39.4519	108.0000
39.4611	76.0000
39.4703	102.0000
39.4796	68.0000
39.4888	103.0000
39.4980	87.0000
39.5072	73.0000
39.5165	85.0000
39.5257	83.0000
39.5349	88.0000
39.5441	77.0000
39.5533	75.0000
39.5626	75.0000
39.5718	81.0000
39.5810	73.0000
39.5902	69.0000
39.5995	90.0000
39.6087	91.0000
39.6179	80.0000
39.6271	91.0000
39.6363	93.0000
39.6456	81.0000
39.6548	74.0000
39.6640	100.0000
39.6732	90.0000
39.6825	96.0000
39.6917	82.0000
39.7009	95.0000
39.7101	90.0000
39.7194	90.0000
39.7286	93.0000
39.7378	84.0000
39.7470	86.0000
39.7562	79.0000
39.7655	83.0000
39.7747	96.0000
39.7839	87.0000
39.7931	82.0000
39.8024	74.0000
39.8116	71.0000
39.8208	83.0000
39.8300	80.0000
39.8392	77.0000
39.8485	75.0000
39.8577	76.0000
39.8669	82.0000
39.8761	80.0000
39.8854	81.0000
39.8946	99.0000
39.9038	88.0000
39.9130	68.0000
39.9222	86.0000
39.9315	78.0000
39.9407	75.0000
39.9499	82.0000
39.9591	91.0000
39.9684	89.0000
39.9776	96.0000
39.9868	84.0000
39.9960	87.0000
40.0053	71.0000
40.0145	67.0000
40.0237	80.0000
40.0329	78.0000
40.0421	83.0000
40.0514	87.0000
40.0606	85.0000
40.0698	87.0000
40.0790	87.0000
40.0883	64.0000
40.0975	84.0000
40.1067	78.0000
40.1159	72.0000
40.1251	84.0000
40.1344	75.0000
40.1436	77.0000
40.1528	98.0000
40.1620	104.0000
40.1713	88.0000
40.1805	92.0000
40.1897	74.0000
40.1989	80.0000
40.2082	84.0000
40.2174	89.0000
40.2266	70.0000
40.2358	86.0000
40.2450	85.0000
40.2543	78.0000
40.2635	90.0000
40.2727	67.0000
40.2819	97.0000
40.2912	85.0000
40.3004	80.0000
40.3096	64.0000
40.3188	82.0000
40.3280	90.0000
40.3373	94.0000
40.3465	99.0000
40.3557	108.0000
40.3649	71.0000
40.3742	90.0000
40.3834	96.0000
40.3926	88.0000
40.4018	90.0000
40.4111	89.0000
40.4203	83.0000
40.4295	84.0000
40.4387	75.0000
40.4479	81.0000
40.4572	80.0000
40.4664	93.0000
40.4756	86.0000
40.4848	98.0000
40.4941	89.0000
40.5033	89.0000
40.5125	88.0000
40.5217	89.0000
40.5309	73.0000
40.5402	81.0000
40.5494	79.0000
40.5586	92.0000
40.5678	77.0000
40.5771	99.0000
40.5863	73.0000
40.5955	88.0000
40.6047	78.0000
40.6139	58.0000
40.6232	88.0000
40.6324	101.0000
40.6416	102.0000
40.6508	65.0000
40.6601	103.0000
40.6693	81.0000
40.6785	91.0000
40.6877	86.0000
40.6970	80.0000
40.7062	91.0000
40.7154	97.0000
40.7246	81.0000
40.7338	77.0000
40.7431	82.0000
40.7523	78.0000
40.7615	87.0000
40.7707	89.0000
40.7800	88.0000
40.7892	77.0000
40.7984	82.0000
40.8076	82.0000
40.8168	90.0000
40.8261	76.0000
40.8353	84.0000
40.8445	84.0000
40.8537	76.0000
40.8630	79.0000
40.8722	78.0000
40.8814	68.0000
40.8906	97.0000
40.8999	70.0000
40.9091	99.0000
40.9183	73.0000
40.9275	91.0000
40.9367	94.0000
40.9460	91.0000
40.9552	91.0000
40.9644	78.0000
40.9736	90.0000
40.9829	89.0000
40.9921	83.0000
41.0013	94.0000
41.0105	89.0000
41.0197	81.0000
41.0290	75.0000
41.0382	75.0000
41.0474	87.0000
41.0566	82.0000
41.0659	83.0000
41.0751	74.0000
41.0843	90.0000
41.0935	83.0000
41.1027	92.0000
41.1120	80.0000
41.1212	89.0000
41.1304	73.0000
41.1396	88.0000
41.1489	78.0000
41.1581	88.0000
41.1673	95.0000
41.1765	73.0000
41.1858	97.0000
41.1950	94.0000
41.2042	80.0000
41.2134	97.0000
41.2226	88.0000
41.2319	104.0000
41.2411	87.0000
41.2503	81.0000
41.2595	89.0000
41.2688	101.0000
41.2780	83.0000
41.2872	88.0000
41.2964	82.0000
41.3056	85.0000
41.3149	79.0000
41.3241	91.0000
41.3333	72.0000
41.3425	77.0000
41.3518	94.0000
41.3610	87.0000
41.3702	90.0000
41.3794	81.0000
41.3887	91.0000
41.3979	82.0000
41.4071	70.0000
41.4163	98.0000
41.4255	66.0000
41.4348	84.0000
41.4440	91.0000
41.4532	97.0000
41.4624	69.0000
41.4717	84.0000
41.4809	79.0000
41.4901	73.0000
41.4993	77.0000
41.5085	76.0000
41.5178	90.0000
41.5270	84.0000
41.5362	77.0000
41.5454	87.0000
41.5547	81.0000
41.5639	78.0000
41.5731	81.0000
41.5823	76.0000
41.5915	90.0000
41.6008	83.0000
41.6100	105.0000
41.6192	98.0000
41.6284	96.0000
41.6377	90.0000
41.6469	91.0000
41.6561	82.0000
41.6653	100.0000
41.6746	85.0000
41.6838	82.0000
41.6930	73.0000
41.7022	100.0000
41.7114	101.0000
41.7207	90.0000
41.7299	75.0000
41.7391	82.0000
41.7483	97.0000
41.7576	81.0000
41.7668	74.0000
41.7760	78.0000
41.7852	93.0000
41.7944	85.0000
41.8037	83.0000
41.8129	89.0000
41.8221	91.0000
41.8313	82.0000
41.8406	81.0000
41.8498	77.0000
41.8590	69.0000
41.8682	76.0000
41.8775	63.0000
41.8867	96.0000
41.8959	81.0000
41.9051	86.0000
41.9143	82.0000
41.9236	102.0000
41.9328	110.0000
41.9420	87.0000
41.9512	65.0000
41.9605	94.0000
41.9697	96.0000
41.9789	72.0000
41.9881	83.0000
41.9973	96.0000
42.0066	85.0000
42.0158	93.0000
42.0250	89.0000
42.0342	84.0000
42.0435	82.0000
42.0527	93.0000
42.0619	71.0000
42.0711	86.0000
42.0804	93.0000
42.0896	94.0000
42.0988	89.0000
42.1080	84.0000
42.1172	74.0000
42.1265	89.0000
42.1357	82.0000
42.1449	77.0000
42.1541	80.0000
42.1634	88.0000
42.1726	87.0000
42.1818	72.0000
42.1910	87.0000
42.2002	71.0000
42.2095	64.0000
42.2187	74.0000
42.2279	104.0000
42.2371	76.0000
42.2464	80.0000
42.2556	78.0000
42.2648	84.0000
42.2740	83.0000
42.2832	89.0000
42.2925	102.0000
42.3017	78.0000
42.3109	89.0000
42.3201	78.0000
42.3294	77.0000
42.3386	86.0000
42.3478	83.0000
42.3570	84.0000
42.3663	95.0000
42.3755	78.0000
42.3847	79.0000
42.3939	76.0000
42.4031	78.0000
42.4124	86.0000
42.4216	98.0000
42.4308	79.0000
42.4400	83.0000
42.4493	90.0000
42.4585	74.0000
42.4677	103.0000
42.4769	84.0000
42.4861	82.0000
42.4954	71.0000
42.5046	84.0000
42.5138	78.0000
42.5230	89.0000
42.5323	84.0000
42.5415	92.0000
42.5507	75.0000
42.5599	78.0000
42.5692	69.0000
42.5784	69.0000
42.5876	94.0000
42.5968	74.0000
42.6060	85.0000
42.6153	79.0000
42.6245	96.0000
42.6337	93.0000
42.6429	72.0000
42.6522	84.0000
42.6614	104.0000
42.6706	84.0000
42.6798	83.0000
42.6890	75.0000
42.6983	93.0000
42.7075	94.0000
42.7167	95.0000
42.7259	77.0000
42.7352	75.0000
42.7444	89.0000
42.7536	83.0000
42.7628	74.0000
42.7720	91.0000
42.7813	94.0000
42.7905	85.0000
42.7997	79.0000
42.8089	91.0000
42.8182	89.0000
42.8274	72.0000
42.8366	88.0000
42.8458	80.0000
42.8551	89.0000
42.8643	86.0000
42.8735	78.0000
42.8827	86.0000
42.8919	75.0000
42.9012	94.0000
42.9104	80.0000
42.9196	93.0000
42.9288	76.0000
42.9381	82.0000
42.9473	70.0000
42.9565	80.0000
42.9657	78.0000
42.9749	86.0000
42.9842	77.0000
42.9934	75.0000
43.0026	82.0000
43.0118	69.0000
43.0211	77.0000
43.0303	88.0000
43.0395	71.0000
43.0487	95.0000
43.0580	73.0000
43.0672	72.0000
43.0764	85.0000
43.0856	83.0000
43.0948	91.0000
43.1041	102.0000
43.1133	76.0000
43.1225	83.0000
43.1317	86.0000
43.1410	99.0000
43.1502	79.0000
43.1594	83.0000
43.1686	67.0000
43.1778	86.0000
43.1871	68.0000
43.1963	99.0000
43.2055	86.0000
43.2147	86.0000
43.2240	75.0000
43.2332	74.0000
43.2424	90.0000
43.2516	89.0000
43.2609	79.0000
43.2701	91.0000
43.2793	99.0000
43.2885	91.0000
43.2977	88.0000
43.3070	90.0000
43.3162	105.0000
43.3254	119.0000
43.3346	139.0000
43.3439	172.0000
43.3531	206.0000
43.3623	236.0000
43.3715	237.0000
43.3807	275.0000
43.3900	287.0000
43.3992	274.0000
43.4084	288.0000
43.4176	293.0000
43.4269	237.0000
43.4361	216.0000
43.4453	160.0000
43.4545	130.0000
43.4637	110.0000
43.4730	107.0000
43.4822	89.0000
43.4914	83.0000
43.5006	85.0000
43.5099	84.0000
43.5191	77.0000
43.5283	75.0000
43.5375	86.0000
43.5468	85.0000
43.5560	107.0000
43.5652	79.0000
43.5744	85.0000
43.5836	98.0000
43.5929	101.0000
43.6021	91.0000
43.6113	151.0000
43.6205	148.0000
43.6298	135.0000
43.6390	181.0000
43.6482	179.0000
43.6574	185.0000
43.6666	184.0000
43.6759	179.0000
43.6851	184.0000
43.6943	184.0000
43.7035	147.0000
43.7128	125.0000
43.7220	110.0000
43.7312	98.0000
43.7404	89.0000
43.7497	103.0000
43.7589	86.0000
43.7681	74.0000
43.7773	89.0000
43.7865	85.0000
43.7958	89.0000
43.8050	70.0000
43.8142	87.0000
43.8234	76.0000
43.8327	87.0000
43.8419	83.0000
43.8511	81.0000
43.8603	80.0000
43.8695	74.0000
43.8788	83.0000
43.8880	79.0000
43.8972	95.0000
43.9064	81.0000
43.9157	73.0000
43.9249	95.0000
43.9341	78.0000
43.9433	100.0000
43.9525	82.0000
43.9618	69.0000
43.9710	80.0000
43.9802	86.0000
43.9894	93.0000
43.9987	80.0000
44.0079	69.0000
44.0171	84.0000
44.0263	86.0000
44.0356	72.0000
44.0448	75.0000
44.0540	89.0000
44.0632	71.0000
44.0724	91.0000
44.0817	76.0000
44.0909	74.0000
44.1001	80.0000
44.1093	62.0000
44.1186	77.0000
44.1278	78.0000
44.1370	82.0000
44.1462	91.0000
44.1554	80.0000
44.1647	78.0000
44.1739	86.0000
44.1831	95.0000
44.1923	79.0000
44.2016	85.0000
44.2108	101.0000
44.2200	85.0000
44.2292	77.0000
44.2385	87.0000
44.2477	88.0000
44.2569	83.0000
44.2661	93.0000
44.2753	71.0000
44.2846	81.0000
44.2938	82.0000
44.3030	77.0000
44.3122	81.0000
44.3215	89.0000
44.3307	101.0000
44.3399	66.0000
44.3491	82.0000
44.3583	82.0000
44.3676	89.0000
44.3768	71.0000
44.3860	84.0000
44.3952	71.0000
44.4045	75.0000
44.4137	98.0000
44.4229	77.0000
44.4321	84.0000
44.4414	70.0000
44.4506	76.0000
44.4598	74.0000
44.4690	81.0000
44.4782	83.0000
44.4875	87.0000
44.4967	74.0000
44.5059	101.0000
44.5151	74.0000
44.5244	80.0000
44.5336	68.0000
44.5428	81.0000
44.5520	81.0000
44.5612	88.0000
44.5705	89.0000
44.5797	80.0000
44.5889	96.0000
44.5981	69.0000
44.6074	100.0000
44.6166	86.0000
44.6258	80.0000
44.6350	100.0000
44.6442	93.0000
44.6535	88.0000
44.6627	89.0000
44.6719	75.0000
44.6811	81.0000
44.6904	69.0000
44.6996	89.0000
44.7088	80.0000
44.7180	85.0000
44.7273	69.0000
44.7365	76.0000
44.7457	83.0000
44.7549	78.0000
44.7641	72.0000
44.7734	65.0000
44.7826	62.0000
44.7918	79.0000
44.8010	77.0000
44.8103	81.0000
44.8195	109.0000
44.8287	81.0000
44.8379	80.0000
44.8471	76.0000
44.8564	77.0000
44.8656	90.0000
44.8748	71.0000
44.8840	84.0000
44.8933	76.0000
44.9025	89.0000
44.9117	68.0000
44.9209	80.0000
44.9302	95.0000
44.9394	84.0000
44.9486	75.0000
44.9578	58.0000
44.9670	60.0000
44.9763	77.0000
44.9855	82.0000
44.9947	72.0000
45.0039	84.0000
45.0132	77.0000
45.0224	100.0000
45.0316	77.0000
45.0408	75.0000
45.0500	89.0000
45.0593	83.0000
45.0685	77.0000
45.0777	73.0000
45.0869	87.0000
45.0962	66.0000
45.1054	80.0000
45.1146	70.0000
45.1238	81.0000
45.1330	66.0000
45.1423	80.0000
45.1515	76.0000
45.1607	78.0000
45.1699	91.0000
45.1792	84.0000
45.1884	85.0000
45.1976	89.0000
45.2068	71.0000
45.2161	83.0000
45.2253	81.0000
45.2345	75.0000
45.2437	72.0000
45.2529	80.0000
45.2622	73.0000
45.2714	73.0000
45.2806	84.0000
45.2898	74.0000
45.2991	85.0000
45.3083	77.0000
45.3175	70.0000
45.3267	90.0000
45.3359	99.0000
45.3452	70.0000
45.3544	85.0000
45.3636	81.0000
45.3728	69.0000
45.3821	75.0000
45.3913	99.0000
45.4005	86.0000
45.4097	101.0000
45.4190	107.0000
45.4282	127.0000
45.4374	125.0000
45.4466	129.0000
45.4558	163.0000
45.4651	173.0000
45.4743	156.0000
45.4835	185.0000
45.4927	214.0000
45.5020	220.0000
45.5112	215.0000
45.5204	187.0000
45.5296	154.0000
45.5388	109.0000
45.5481	95.0000
45.5573	107.0000
45.5665	98.0000
45.5757	83.0000
45.5850	80.0000
45.5942	91.0000
45.6034	86.0000
45.6126	72.0000
45.6219	71.0000
45.6311	78.0000
45.6403	72.0000
45.6495	95.0000
45.6587	90.0000
45.6680	83.0000
45.6772	90.0000
45.6864	74.0000
45.6956	84.0000
45.7049	85.0000
45.7141	88.0000
45.7233	120.0000
45.7325	99.0000
45.7417	119.0000
45.7510	126.0000
45.7602	139.0000
45.7694	137.0000
45.7786	139.0000
45.7879	166.0000
45.7971	123.0000
45.8063	120.0000
45.8155	89.0000
45.8247	97.0000
45.8340	85.0000
45.8432	76.0000
45.8524	68.0000
45.8616	74.0000
45.8709	81.0000
45.8801	79.0000
45.8893	77.0000
45.8985	70.0000
45.9078	67.0000
45.9170	77.0000
45.9262	92.0000
45.9354	94.0000
45.9446	75.0000
45.9539	59.0000
45.9631	84.0000
45.9723	72.0000
45.9815	57.0000
45.9908	78.0000
46.0000	72.0000
46.0092	71.0000
46.0184	84.0000
46.0276	79.0000
46.0369	66.0000
46.0461	80.0000
46.0553	67.0000
46.0645	86.0000
46.0738	76.0000
46.0830	60.0000
46.0922	81.0000
46.1014	73.0000
46.1107	83.0000
46.1199	75.0000
46.1291	67.0000
46.1383	92.0000
46.1475	77.0000
46.1568	72.0000
46.1660	82.0000
46.1752	72.0000
46.1844	77.0000
46.1937	74.0000
46.2029	73.0000
46.2121	78.0000
46.2213	74.0000
46.2305	73.0000
46.2398	76.0000
46.2490	59.0000
46.2582	55.0000
46.2674	72.0000
46.2767	74.0000
46.2859	65.0000
46.2951	77.0000
46.3043	70.0000
46.3135	74.0000
46.3228	82.0000
46.3320	82.0000
46.3412	73.0000
46.3504	82.0000
46.3597	51.0000
46.3689	61.0000
46.3781	73.0000
46.3873	68.0000
46.3966	69.0000
46.4058	71.0000
46.4150	69.0000
46.4242	65.0000
46.4334	68.0000
46.4427	70.0000
46.4519	89.0000
46.4611	66.0000
46.4703	61.0000
46.4796	65.0000
46.4888	77.0000
46.4980	82.0000
46.5072	62.0000
46.5164	72.0000
46.5257	69.0000
46.5349	69.0000
46.5441	83.0000
46.5533	79.0000
46.5626	69.0000
46.5718	76.0000
46.5810	66.0000
46.5902	72.0000
46.5995	76.0000
46.6087	63.0000
46.6179	60.0000
46.6271	66.0000
46.6363	93.0000
46.6456	53.0000
46.6548	76.0000
46.6640	60.0000
46.6732	66.0000
46.6825	72.0000
46.6917	53.0000
46.7009	88.0000
46.7101	64.0000
46.7193	59.0000
46.7286	78.0000
46.7378	75.0000
46.7470	74.0000
46.7562	81.0000
46.7655	75.0000
46.7747	54.0000
46.7839	70.0000
46.7931	64.0000
46.8024	62.0000
46.8116	71.0000
46.8208	87.0000
46.8300	57.0000
46.8392	45.0000
46.8485	85.0000
46.8577	85.0000
46.8669	58.0000
46.8761	64.0000
46.8854	65.0000
46.8946	74.0000
46.9038	69.0000
46.9130	68.0000
46.9222	78.0000
46.9315	70.0000
46.9407	67.0000
46.9499	70.0000
46.9591	82.0000
46.9684	58.0000
46.9776	62.0000
46.9868	74.0000
46.9960	61.0000
47.0052	75.0000
47.0145	69.0000
47.0237	67.0000
47.0329	66.0000
47.0421	72.0000
47.0514	81.0000
47.0606	66.0000
47.0698	71.0000
47.0790	57.0000
47.0883	58.0000
47.0975	67.0000
47.1067	69.0000
47.1159	68.0000
47.1251	75.0000
47.1344	59.0000
47.1436	65.0000
47.1528	63.0000
47.1620	67.0000
47.1713	79.0000
47.1805	59.0000
47.1897	80.0000
47.1989	78.0000
47.2081	72.0000
47.2174	84.0000
47.2266	75.0000
47.2358	81.0000
47.2450	59.0000
47.2543	68.0000
47.2635	58.0000
47.2727	78.0000
47.2819	78.0000
47.2912	76.0000
47.3004	67.0000
47.3096	59.0000
47.3188	70.0000
47.3280	74.0000
47.3373	84.0000
47.3465	71.0000
47.3557	69.0000
47.3649	59.0000
47.3742	77.0000
47.3834	68.0000
47.3926	74.0000
47.4018	68.0000
47.4110	73.0000
47.4203	74.0000
47.4295	55.0000
47.4387	55.0000
47.4479	55.0000
47.4572	53.0000
47.4664	70.0000
47.4756	73.0000
47.4848	52.0000
47.4940	66.0000
47.5033	61.0000
47.5125	79.0000
47.5217	72.0000
47.5309	67.0000
47.5402	62.0000
47.5494	74.0000
47.5586	45.0000
47.5678	68.0000
47.5771	62.0000
47.5863	62.0000
47.5955	55.0000
47.6047	65.0000
47.6139	59.0000
47.6232	67.0000
47.6324	66.0000
47.6416	52.0000
47.6508	77.0000
47.6601	60.0000
47.6693	59.0000
47.6785	75.0000
47.6877	65.0000
47.6969	74.0000
47.7062	72.0000
47.7154	70.0000
47.7246	65.0000
47.7338	60.0000
47.7431	73.0000
47.7523	82.0000
47.7615	65.0000
47.7707	67.0000
47.7800	55.0000
47.7892	61.0000
47.7984	63.0000
47.8076	62.0000
47.8168	68.0000
47.8261	64.0000
47.8353	65.0000
47.8445	70.0000
47.8537	64.0000
47.8630	72.0000
47.8722	63.0000
47.8814	74.0000
47.8906	81.0000
47.8998	76.0000
47.9091	83.0000
47.9183	41.0000
47.9275	54.0000
47.9367	66.0000
47.9460	56.0000
47.9552	63.0000
47.9644	75.0000
47.9736	77.0000
47.9829	64.0000
47.9921	54.0000
48.0013	65.0000
