11.0000	719.0000
11.0092	699.0000
11.0184	650.0000
11.0277	667.0000
11.0369	628.0000
11.0461	691.0000
11.0553	633.0000
11.0646	656.0000
11.0738	707.0000
11.0830	671.0000
11.0922	651.0000
11.1014	696.0000
11.1107	654.0000
11.1199	650.0000
11.1291	702.0000
11.1383	622.0000
11.1476	676.0000
11.1568	610.0000
11.1660	622.0000
11.1752	649.0000
11.1845	624.0000
11.1937	611.0000
11.2029	669.0000
11.2121	671.0000
11.2213	618.0000
11.2306	651.0000
11.2398	615.0000
11.2490	635.0000
11.2582	576.0000
11.2675	623.0000
11.2767	596.0000
11.2859	639.0000
11.2951	611.0000
11.3043	618.0000
11.3136	588.0000
11.3228	621.0000
11.3320	590.0000
11.3412	618.0000
11.3505	564.0000
11.3597	584.0000
11.3689	593.0000
11.3781	632.0000
11.3874	634.0000
11.3966	660.0000
11.4058	650.0000
11.4150	621.0000
11.4242	601.0000
11.4335	605.0000
11.4427	622.0000
11.4519	618.0000
11.4611	540.0000
11.4704	586.0000
11.4796	595.0000
11.4888	578.0000
11.4980	591.0000
11.5072	586.0000
11.5165	601.0000
11.5257	555.0000
11.5349	569.0000
11.5441	531.0000
11.5534	591.0000
11.5626	568.0000
11.5718	553.0000
11.5810	585.0000
11.5902	552.0000
11.5995	559.0000
11.6087	604.0000
11.6179	545.0000
11.6271	573.0000
11.6364	567.0000
11.6456	556.0000
11.6548	558.0000
11.6640	582.0000
11.6733	513.0000
11.6825	524.0000
11.6917	569.0000
11.7009	577.0000
11.7101	564.0000
11.7194	573.0000
11.7286	514.0000
11.7378	576.0000
11.7470	532.0000
11.7563	533.0000
11.7655	548.0000
11.7747	529.0000
11.7839	521.0000
11.7931	512.0000
11.8024	540.0000
11.8116	548.0000
11.8208	504.0000
11.8300	528.0000
11.8393	495.0000
11.8485	476.0000
11.8577	546.0000
11.8669	507.0000
11.8762	499.0000
11.8854	520.0000
11.8946	506.0000
11.9038	507.0000
11.9130	485.0000
11.9223	502.0000
11.9315	517.0000
11.9407	512.0000
11.9499	483.0000
11.9592	532.0000
11.9684	496.0000
11.9776	491.0000
11.9868	523.0000
11.9960	509.0000
12.0053	489.0000
12.0145	506.0000
12.0237	503.0000
12.0329	492.0000
12.0422	472.0000
12.0514	497.0000
12.0606	507.0000
12.0698	458.0000
12.0791	476.0000
12.0883	448.0000
12.0975	493.0000
12.1067	470.0000
12.1159	497.0000
12.1252	467.0000
12.1344	513.0000
12.1436	509.0000
12.1528	431.0000
12.1621	469.0000
12.1713	468.0000
12.1805	485.0000
12.1897	463.0000
12.1989	457.0000
12.2082	460.0000
12.2174	456.0000
12.2266	486.0000
12.2358	465.0000
12.2451	470.0000
12.2543	476.0000
12.2635	486.0000
12.2727	443.0000
12.2819	456.0000
12.2912	462.0000
12.3004	483.0000
12.3096	443.0000
12.3188	445.0000
12.3281	480.0000
12.3373	476.0000
12.3465	431.0000
12.3557	422.0000
12.3650	461.0000
12.3742	452.0000
12.3834	450.0000
12.3926	409.0000
12.4018	407.0000
12.4111	435.0000
12.4203	443.0000
12.4295	466.0000
12.4387	479.0000
12.4480	457.0000
12.4572	443.0000
12.4664	438.0000
12.4756	425.0000
12.4848	453.0000
12.4941	461.0000
12.5033	444.0000
12.5125	391.0000
12.5217	434.0000
12.5310	427.0000
12.5402	439.0000
12.5494	430.0000
12.5586	448.0000
12.5679	446.0000
12.5771	413.0000
12.5863	469.0000
12.5955	429.0000
12.6047	408.0000
12.6140	401.0000
12.6232	409.0000
12.6324	425.0000
12.6416	407.0000
12.6509	425.0000
12.6601	410.0000
12.6693	439.0000
12.6785	398.0000
12.6877	417.0000
12.6970	415.0000
12.7062	417.0000
12.7154	410.0000
12.7246	433.0000
12.7339	398.0000
12.7431	446.0000
12.7523	404.0000
12.7615	435.0000
12.7707	399.0000
12.7800	402.0000
12.7892	386.0000
12.7984	409.0000
12.8076	430.0000
12.8169	400.0000
12.8261	400.0000
12.8353	404.0000
12.8445	395.0000
12.8538	381.0000
12.8630	366.0000
12.8722	397.0000
12.8814	428.0000
12.8906	404.0000
12.8999	418.0000
12.9091	444.0000
12.9183	450.0000
12.9275	579.0000
12.9368	698.0000
12.9460	894.0000
12.9552	984.0000
12.9644	944.0000
12.9736	727.0000
12.9829	564.0000
12.9921	487.0000
13.0013	522.0000
13.0105	552.0000
13.0198	662.0000
13.0290	757.0000
13.0382	723.0000
13.0474	521.0000
13.0567	480.0000
13.0659	417.0000
13.0751	372.0000
13.0843	391.0000
13.0935	394.0000
13.1028	383.0000
13.1120	387.0000
13.1212	394.0000
13.1304	427.0000
13.1397	372.0000
13.1489	391.0000
13.1581	370.0000
13.1673	402.0000
13.1765	362.0000
13.1858	347.0000
13.1950	369.0000
13.2042	405.0000
13.2134	343.0000
13.2227	397.0000
13.2319	375.0000
13.2411	357.0000
13.2503	357.0000
13.2596	375.0000
13.2688	345.0000
13.2780	360.0000
13.2872	346.0000
13.2964	393.0000
13.3057	367.0000
13.3149	400.0000
13.3241	346.0000
13.3333	390.0000
13.3426	355.0000
13.3518	349.0000
13.3610	356.0000
13.3702	366.0000
13.3794	322.0000
13.3887	348.0000
13.3979	357.0000
13.4071	334.0000
13.4163	377.0000
13.4256	339.0000
13.4348	361.0000
13.4440	308.0000
13.4532	363.0000
13.4624	345.0000
13.4717	350.0000
13.4809	370.0000
13.4901	354.0000
13.4993	349.0000
13.5086	350.0000
13.5178	356.0000
13.5270	369.0000
13.5362	345.0000
13.5455	353.0000
13.5547	348.0000
13.5639	354.0000
13.5731	342.0000
13.5823	366.0000
13.5916	334.0000
13.6008	347.0000
13.6100	365.0000
13.6192	346.0000
13.6285	335.0000
13.6377	306.0000
13.6469	362.0000
13.6561	335.0000
13.6653	332.0000
13.6746	324.0000
13.6838	301.0000
13.6930	330.0000
13.7022	330.0000
13.7115	343.0000
13.7207	353.0000
13.7299	324.0000
13.7391	312.0000
13.7484	350.0000
13.7576	320.0000
13.7668	339.0000
13.7760	312.0000
13.7852	315.0000
13.7945	346.0000
13.8037	320.0000
13.8129	315.0000
13.8221	322.0000
13.8314	362.0000
13.8406	320.0000
13.8498	333.0000
13.8590	326.0000
13.8682	326.0000
13.8775	339.0000
13.8867	325.0000
13.8959	345.0000
13.9051	340.0000
13.9144	339.0000
13.9236	296.0000
13.9328	296.0000
13.9420	341.0000
13.9512	286.0000
13.9605	330.0000
13.9697	311.0000
13.9789	328.0000
13.9881	305.0000
13.9974	323.0000
14.0066	278.0000
14.0158	298.0000
14.0250	289.0000
14.0343	287.0000
14.0435	336.0000
14.0527	303.0000
14.0619	304.0000
14.0711	329.0000
14.0804	333.0000
14.0896	344.0000
14.0988	313.0000
14.1080	293.0000
14.1173	291.0000
14.1265	321.0000
14.1357	285.0000
14.1449	297.0000
14.1541	311.0000
14.1634	308.0000
14.1726	300.0000
14.1818	305.0000
14.1910	302.0000
14.2003	280.0000
14.2095	282.0000
14.2187	316.0000
14.2279	319.0000
14.2372	332.0000
14.2464	335.0000
14.2556	304.0000
14.2648	285.0000
14.2740	269.0000
14.2833	324.0000
14.2925	310.0000
14.3017	320.0000
14.3109	319.0000
14.3202	302.0000
14.3294	299.0000
14.3386	301.0000
14.3478	287.0000
14.3570	318.0000
14.3663	301.0000
14.3755	295.0000
14.3847	281.0000
14.3939	291.0000
14.4032	300.0000
14.4124	301.0000
14.4216	287.0000
14.4308	281.0000
14.4401	323.0000
14.4493	286.0000
14.4585	269.0000
14.4677	308.0000
14.4769	299.0000
14.4862	278.0000
14.4954	278.0000
14.5046	276.0000
14.5138	286.0000
14.5231	312.0000
14.5323	263.0000
14.5415	259.0000
14.5507	283.0000
14.5599	287.0000
14.5692	335.0000
14.5784	302.0000
14.5876	310.0000
14.5968	289.0000
14.6061	285.0000
14.6153	274.0000
14.6245	339.0000
14.6337	320.0000
14.6429	278.0000
14.6522	289.0000
14.6614	286.0000
14.6706	286.0000
14.6798	292.0000
14.6891	286.0000
14.6983	286.0000
14.7075	331.0000
14.7167	302.0000
14.7260	268.0000
14.7352	265.0000
14.7444	286.0000
14.7536	307.0000
14.7628	327.0000
14.7721	283.0000
14.7813	295.0000
14.7905	258.0000
14.7997	305.0000
14.8090	314.0000
14.8182	274.0000
14.8274	299.0000
14.8366	269.0000
14.8458	271.0000
14.8551	298.0000
14.8643	273.0000
14.8735	273.0000
14.8827	286.0000
14.8920	268.0000
14.9012	245.0000
14.9104	261.0000
14.9196	275.0000
14.9289	280.0000
14.9381	254.0000
14.9473	272.0000
14.9565	306.0000
14.9657	255.0000
14.9750	273.0000
14.9842	293.0000
14.9934	254.0000
15.0026	270.0000
15.0119	299.0000
15.0211	265.0000
15.0303	298.0000
15.0395	276.0000
15.0487	277.0000
15.0580	277.0000
15.0672	282.0000
15.0764	270.0000
15.0856	250.0000
15.0949	241.0000
15.1041	265.0000
15.1133	279.0000
15.1225	283.0000
15.1317	250.0000
15.1410	297.0000
15.1502	268.0000
15.1594	293.0000
15.1686	266.0000
15.1779	243.0000
15.1871	280.0000
15.1963	275.0000
15.2055	266.0000
15.2148	234.0000
15.2240	262.0000
15.2332	270.0000
15.2424	293.0000
15.2516	275.0000
15.2609	267.0000
15.2701	249.0000
15.2793	263.0000
15.2885	278.0000
15.2978	299.0000
15.3070	253.0000
15.3162	290.0000
15.3254	241.0000
15.3346	258.0000
15.3439	276.0000
15.3531	265.0000
15.3623	265.0000
15.3715	248.0000
15.3808	274.0000
15.3900	272.0000
15.3992	261.0000
15.4084	254.0000
15.4177	272.0000
15.4269	258.0000
15.4361	227.0000
15.4453	246.0000
15.4545	248.0000
15.4638	250.0000
15.4730	270.0000
15.4822	292.0000
15.4914	255.0000
15.5007	239.0000
15.5099	226.0000
15.5191	262.0000
15.5283	267.0000
15.5375	237.0000
15.5468	253.0000
15.5560	249.0000
15.5652	238.0000
15.5744	255.0000
15.5837	246.0000
15.5929	253.0000
15.6021	294.0000
15.6113	258.0000
15.6206	242.0000
15.6298	290.0000
15.6390	248.0000
15.6482	243.0000
15.6574	255.0000
15.6667	235.0000
15.6759	233.0000
15.6851	255.0000
15.6943	254.0000
15.7036	252.0000
15.7128	263.0000
15.7220	248.0000
15.7312	271.0000
15.7404	268.0000
15.7497	263.0000
15.7589	274.0000
15.7681	232.0000
15.7773	263.0000
15.7866	280.0000
15.7958	242.0000
15.8050	263.0000
15.8142	256.0000
15.8234	250.0000
15.8327	253.0000
15.8419	233.0000
15.8511	233.0000
15.8603	255.0000
15.8696	273.0000
15.8788	270.0000
15.8880	232.0000
15.8972	235.0000
15.9065	229.0000
15.9157	249.0000
15.9249	247.0000
15.9341	239.0000
15.9433	221.0000
15.9526	244.0000
15.9618	210.0000
15.9710	227.0000
15.9802	195.0000
15.9895	247.0000
15.9987	261.0000
16.0079	258.0000
16.0171	263.0000
16.0263	245.0000
16.0356	226.0000
16.0448	230.0000
16.0540	259.0000
16.0632	250.0000
16.0725	249.0000
16.0817	221.0000
16.0909	238.0000
16.1001	252.0000
16.1094	234.0000
16.1186	240.0000
16.1278	218.0000
16.1370	247.0000
16.1462	266.0000
16.1555	234.0000
16.1647	238.0000
16.1739	237.0000
16.1831	248.0000
16.1924	256.0000
16.2016	257.0000
16.2108	212.0000
16.2200	233.0000
16.2292	235.0000
16.2385	252.0000
16.2477	253.0000
16.2569	262.0000
16.2661	217.0000
16.2754	236.0000
16.2846	253.0000
16.2938	231.0000
16.3030	231.0000
16.3122	250.0000
16.3215	259.0000
16.3307	215.0000
16.3399	230.0000
16.3491	225.0000
16.3584	212.0000
16.3676	239.0000
16.3768	259.0000
16.3860	262.0000
16.3953	245.0000
16.4045	241.0000
16.4137	230.0000
16.4229	218.0000
16.4321	235.0000
16.4414	273.0000
16.4506	232.0000
16.4598	229.0000
16.4690	211.0000
16.4783	244.0000
16.4875	229.0000
16.4967	218.0000
16.5059	215.0000
16.5151	221.0000
16.5244	210.0000
16.5336	255.0000
16.5428	223.0000
16.5520	237.0000
16.5613	204.0000
16.5705	234.0000
16.5797	198.0000
16.5889	213.0000
16.5982	212.0000
16.6074	226.0000
16.6166	229.0000
16.6258	238.0000
16.6350	212.0000
16.6443	221.0000
16.6535	208.0000
16.6627	208.0000
16.6719	236.0000
16.6812	242.0000
16.6904	234.0000
16.6996	211.0000
16.7088	232.0000
16.7180	209.0000
16.7273	210.0000
16.7365	225.0000
16.7457	247.0000
16.7549	208.0000
16.7642	238.0000
16.7734	202.0000
16.7826	184.0000
16.7918	206.0000
16.8011	244.0000
16.8103	187.0000
16.8195	232.0000
16.8287	220.0000
16.8379	221.0000
16.8472	214.0000
16.8564	208.0000
16.8656	211.0000
16.8748	214.0000
16.8841	213.0000
16.8933	208.0000
16.9025	235.0000
16.9117	201.0000
16.9209	225.0000
16.9302	203.0000
16.9394	195.0000
16.9486	235.0000
16.9578	218.0000
16.9671	233.0000
16.9763	237.0000
16.9855	237.0000
16.9947	227.0000
17.0039	208.0000
17.0132	237.0000
17.0224	200.0000
17.0316	183.0000
17.0408	212.0000
17.0501	227.0000
17.0593	188.0000
17.0685	207.0000
17.0777	243.0000
17.0870	238.0000
17.0962	211.0000
17.1054	216.0000
17.1146	227.0000
17.1238	218.0000
17.1331	221.0000
17.1423	211.0000
17.1515	213.0000
17.1607	206.0000
17.1700	210.0000
17.1792	191.0000
17.1884	190.0000
17.1976	184.0000
17.2068	212.0000
17.2161	200.0000
17.2253	222.0000
17.2345	207.0000
17.2437	192.0000
17.2530	233.0000
17.2622	196.0000
17.2714	227.0000
17.2806	214.0000
17.2899	210.0000
17.2991	201.0000
17.3083	199.0000
17.3175	191.0000
17.3267	188.0000
17.3360	208.0000
17.3452	209.0000
17.3544	204.0000
17.3636	219.0000
17.3729	204.0000
17.3821	187.0000
17.3913	189.0000
17.4005	196.0000
17.4097	176.0000
17.4190	186.0000
17.4282	200.0000
17.4374	198.0000
17.4466	204.0000
17.4559	194.0000
17.4651	230.0000
17.4743	185.0000
17.4835	198.0000
17.4927	231.0000
17.5020	185.0000
17.5112	211.0000
17.5204	197.0000
17.5296	206.0000
17.5389	210.0000
17.5481	217.0000
17.5573	206.0000
17.5665	195.0000
17.5758	190.0000
17.5850	202.0000
17.5942	189.0000
17.6034	206.0000
17.6126	192.0000
17.6219	189.0000
17.6311	191.0000
17.6403	179.0000
17.6495	194.0000
17.6588	202.0000
17.6680	196.0000
17.6772	179.0000
17.6864	212.0000
17.6956	172.0000
17.7049	172.0000
17.7141	205.0000
17.7233	199.0000
17.7325	188.0000
17.7418	219.0000
17.7510	186.0000
17.7602	188.0000
17.7694	199.0000
17.7787	198.0000
17.7879	148.0000
17.7971	195.0000
17.8063	178.0000
17.8155	170.0000
17.8248	194.0000
17.8340	175.0000
17.8432	183.0000
17.8524	197.0000
17.8617	204.0000
17.8709	189.0000
17.8801	180.0000
17.8893	194.0000
17.8985	188.0000
17.9078	191.0000
17.9170	194.0000
17.9262	194.0000
17.9354	201.0000
17.9447	195.0000
17.9539	164.0000
17.9631	192.0000
17.9723	187.0000
17.9816	196.0000
17.9908	185.0000
18.0000	180.0000
18.0092	186.0000
18.0184	202.0000
18.0277	201.0000
18.0369	160.0000
18.0461	180.0000
18.0553	165.0000
18.0646	209.0000
18.0738	167.0000
18.0830	185.0000
18.0922	191.0000
18.1014	184.0000
18.1107	196.0000
18.1199	200.0000
18.1291	194.0000
18.1383	187.0000
18.1476	175.0000
18.1568	176.0000
18.1660	166.0000
18.1752	178.0000
18.1844	178.0000
18.1937	197.0000
18.2029	189.0000
18.2121	184.0000
18.2213	203.0000
18.2306	182.0000
18.2398	173.0000
18.2490	185.0000
18.2582	186.0000
18.2675	186.0000
18.2767	193.0000
18.2859	196.0000
18.2951	180.0000
18.3043	170.0000
18.3136	189.0000
18.3228	194.0000
18.3320	195.0000
18.3412	175.0000
18.3505	203.0000
18.3597	189.0000
18.3689	192.0000
18.3781	178.0000
18.3873	162.0000
18.3966	179.0000
18.4058	171.0000
18.4150	186.0000
18.4242	189.0000
18.4335	170.0000
18.4427	173.0000
18.4519	189.0000
18.4611	207.0000
18.4704	152.0000
18.4796	208.0000
18.4888	182.0000
18.4980	196.0000
18.5072	178.0000
18.5165	166.0000
18.5257	187.0000
18.5349	182.0000
18.5441	187.0000
18.5534	202.0000
18.5626	202.0000
18.5718	169.0000
18.5810	156.0000
18.5902	184.0000
18.5995	183.0000
18.6087	177.0000
18.6179	182.0000
18.6271	183.0000
18.6364	179.0000
18.6456	176.0000
18.6548	169.0000
18.6640	173.0000
18.6732	174.0000
18.6825	168.0000
18.6917	152.0000
18.7009	188.0000
18.7101	191.0000
18.7194	169.0000
18.7286	167.0000
18.7378	218.0000
18.7470	195.0000
18.7563	208.0000
18.7655	179.0000
18.7747	158.0000
18.7839	201.0000
18.7931	174.0000
18.8024	183.0000
18.8116	187.0000
18.8208	201.0000
18.8300	180.0000
18.8393	179.0000
18.8485	171.0000
18.8577	182.0000
18.8669	186.0000
18.8761	184.0000
18.8854	179.0000
18.8946	181.0000
18.9038	185.0000
18.9130	182.0000
18.9223	166.0000
18.9315	158.0000
18.9407	168.0000
18.9499	188.0000
18.9592	174.0000
18.9684	211.0000
18.9776	197.0000
18.9868	180.0000
18.9960	174.0000
19.0053	165.0000
19.0145	181.0000
19.0237	186.0000
19.0329	177.0000
19.0422	189.0000
19.0514	185.0000
19.0606	184.0000
19.0698	202.0000
19.0790	183.0000
19.0883	187.0000
19.0975	207.0000
19.1067	173.0000
19.1159	188.0000
19.1252	192.0000
19.1344	172.0000
19.1436	181.0000
19.1528	176.0000
19.1621	183.0000
19.1713	199.0000
19.1805	195.0000
19.1897	188.0000
19.1989	167.0000
19.2082	200.0000
19.2174	210.0000
19.2266	177.0000
19.2358	193.0000
19.2451	195.0000
19.2543	187.0000
19.2635	153.0000
19.2727	211.0000
19.2819	178.0000
19.2912	185.0000
19.3004	163.0000
19.3096	181.0000
19.3188	175.0000
19.3281	185.0000
19.3373	169.0000
19.3465	182.0000
19.3557	190.0000
19.3649	170.0000
19.3742	188.0000
19.3834	186.0000
19.3926	180.0000
19.4018	183.0000
19.4111	189.0000
19.4203	203.0000
19.4295	198.0000
19.4387	209.0000
19.4480	186.0000
19.4572	191.0000
19.4664	185.0000
19.4756	191.0000
19.4848	171.0000
19.4941	186.0000
19.5033	209.0000
19.5125	191.0000
19.5217	162.0000
19.5310	210.0000
19.5402	161.0000
19.5494	190.0000
19.5586	181.0000
19.5678	197.0000
19.5771	199.0000
19.5863	194.0000
19.5955	171.0000
19.6047	189.0000
19.6140	182.0000
19.6232	198.0000
19.6324	203.0000
19.6416	179.0000
19.6509	185.0000
19.6601	196.0000
19.6693	189.0000
19.6785	190.0000
19.6877	198.0000
19.6970	189.0000
19.7062	194.0000
19.7154	198.0000
19.7246	171.0000
19.7339	203.0000
19.7431	194.0000
19.7523	187.0000
19.7615	167.0000
19.7707	199.0000
19.7800	196.0000
19.7892	185.0000
19.7984	200.0000
19.8076	198.0000
19.8169	195.0000
19.8261	190.0000
19.8353	166.0000
19.8445	210.0000
19.8537	194.0000
19.8630	188.0000
19.8722	185.0000
19.8814	161.0000
19.8906	173.0000
19.8999	206.0000
19.9091	189.0000
19.9183	195.0000
19.9275	199.0000
19.9368	185.0000
19.9460	170.0000
19.9552	199.0000
19.9644	177.0000
19.9736	198.0000
19.9829	198.0000
19.9921	190.0000
20.0013	173.0000
20.0105	210.0000
20.0198	178.0000
20.0290	195.0000
20.0382	192.0000
20.0474	190.0000
20.0566	208.0000
20.0659	213.0000
20.0751	176.0000
20.0843	183.0000
20.0935	180.0000
20.1028	204.0000
20.1120	194.0000
20.1212	199.0000
20.1304	170.0000
20.1397	164.0000
20.1489	190.0000
20.1581	196.0000
20.1673	189.0000
20.1765	194.0000
20.1858	180.0000
20.1950	172.0000
20.2042	180.0000
20.2134	204.0000
20.2227	165.0000
20.2319	193.0000
20.2411	191.0000
20.2503	184.0000
20.2595	194.0000
20.2688	188.0000
20.2780	187.0000
20.2872	196.0000
20.2964	177.0000
20.3057	169.0000
20.3149	175.0000
20.3241	185.0000
20.3333	181.0000
20.3426	188.0000
20.3518	183.0000
20.3610	216.0000
20.3702	181.0000
20.3794	178.0000
20.3887	176.0000
20.3979	194.0000
20.4071	200.0000
20.4163	183.0000
20.4256	192.0000
20.4348	170.0000
20.4440	215.0000
20.4532	203.0000
20.4624	209.0000
20.4717	177.0000
20.4809	160.0000
20.4901	168.0000
20.4993	216.0000
20.5086	190.0000
20.5178	204.0000
20.5270	207.0000
20.5362	190.0000
20.5454	187.0000
20.5547	180.0000
20.5639	177.0000
20.5731	186.0000
20.5823	192.0000
20.5916	192.0000
20.6008	174.0000
20.6100	189.0000
20.6192	190.0000
20.6285	188.0000
20.6377	170.0000
20.6469	168.0000
20.6561	187.0000
20.6653	178.0000
20.6746	169.0000
20.6838	197.0000
20.6930	147.0000
20.7022	191.0000
20.7115	190.0000
20.7207	181.0000
20.7299	169.0000
20.7391	167.0000
20.7483	176.0000
20.7576	187.0000
20.7668	220.0000
20.7760	186.0000
20.7852	178.0000
20.7945	226.0000
20.8037	200.0000
20.8129	171.0000
20.8221	190.0000
20.8314	200.0000
20.8406	183.0000
20.8498	204.0000
20.8590	189.0000
20.8682	204.0000
20.8775	189.0000
20.8867	180.0000
20.8959	172.0000
20.9051	179.0000
20.9144	184.0000
20.9236	199.0000
20.9328	213.0000
20.9420	192.0000
20.9512	181.0000
20.9605	164.0000
20.9697	193.0000
20.9789	186.0000
20.9881	195.0000
20.9974	207.0000
21.0066	180.0000
21.0158	190.0000
21.0250	170.0000
21.0342	183.0000
21.0435	208.0000
21.0527	185.0000
21.0619	195.0000
21.0711	173.0000
21.0804	166.0000
21.0896	183.0000
21.0988	191.0000
21.1080	195.0000
21.1173	209.0000
21.1265	198.0000
21.1357	176.0000
21.1449	202.0000
21.1541	175.0000
21.1634	189.0000
21.1726	218.0000
21.1818	203.0000
21.1910	199.0000
21.2003	227.0000
21.2095	230.0000
21.2187	254.0000
21.2279	229.0000
21.2371	228.0000
21.2464	196.0000
21.2556	193.0000
21.2648	202.0000
21.2740	176.0000
21.2833	201.0000
21.2925	189.0000
21.3017	167.0000
21.3109	177.0000
21.3202	189.0000
21.3294	217.0000
21.3386	242.0000
21.3478	198.0000
21.3570	232.0000
21.3663	210.0000
21.3755	182.0000
21.3847	179.0000
21.3939	207.0000
21.4032	177.0000
21.4124	199.0000
21.4216	213.0000
21.4308	180.0000
21.4400	176.0000
21.4493	171.0000
21.4585	169.0000
21.4677	185.0000
21.4769	176.0000
21.4862	186.0000
21.4954	175.0000
21.5046	173.0000
21.5138	194.0000
21.5231	175.0000
21.5323	212.0000
21.5415	200.0000
21.5507	184.0000
21.5599	195.0000
21.5692	183.0000
21.5784	192.0000
21.5876	210.0000
21.5968	211.0000
21.6061	179.0000
21.6153	159.0000
21.6245	191.0000
21.6337	197.0000
21.6429	188.0000
21.6522	179.0000
21.6614	176.0000
21.6706	169.0000
21.6798	198.0000
21.6891	187.0000
21.6983	189.0000
21.7075	179.0000
21.7167	203.0000
21.7259	201.0000
21.7352	222.0000
21.7444	174.0000
21.7536	169.0000
21.7628	200.0000
21.7721	188.0000
21.7813	174.0000
21.7905	203.0000
21.7997	171.0000
21.8090	197.0000
21.8182	162.0000
21.8274	200.0000
21.8366	210.0000
21.8458	175.0000
21.8551	183.0000
21.8643	198.0000
21.8735	168.0000
21.8827	177.0000
21.8920	223.0000
21.9012	190.0000
21.9104	156.0000
21.9196	185.0000
21.9288	198.0000
21.9381	182.0000
21.9473	206.0000
21.9565	177.0000
21.9657	188.0000
21.9750	185.0000
21.9842	183.0000
21.9934	201.0000
22.0026	190.0000
22.0119	194.0000
22.0211	198.0000
22.0303	169.0000
22.0395	173.0000
22.0487	174.0000
22.0580	165.0000
22.0672	183.0000
22.0764	180.0000
22.0856	183.0000
22.0949	190.0000
22.1041	187.0000
22.1133	160.0000
22.1225	191.0000
22.1317	202.0000
22.1410	184.0000
22.1502	188.0000
22.1594	225.0000
22.1686	172.0000
22.1779	176.0000
22.1871	175.0000
22.1963	177.0000
22.2055	184.0000
22.2147	205.0000
22.2240	172.0000
22.2332	164.0000
22.2424	196.0000
22.2516	184.0000
22.2609	170.0000
22.2701	189.0000
22.2793	197.0000
22.2885	181.0000
22.2978	192.0000
22.3070	186.0000
22.3162	172.0000
22.3254	185.0000
22.3346	188.0000
22.3439	177.0000
22.3531	194.0000
22.3623	196.0000
22.3715	186.0000
22.3808	199.0000
22.3900	207.0000
22.3992	169.0000
22.4084	176.0000
22.4176	180.0000
22.4269	178.0000
22.4361	184.0000
22.4453	179.0000
22.4545	185.0000
22.4638	193.0000
22.4730	190.0000
22.4822	198.0000
22.4914	168.0000
22.5007	199.0000
22.5099	186.0000
22.5191	179.0000
22.5283	182.0000
22.5375	183.0000
22.5468	186.0000
22.5560	178.0000
22.5652	184.0000
22.5744	162.0000
22.5837	208.0000
22.5929	166.0000
22.6021	188.0000
22.6113	174.0000
22.6205	190.0000
22.6298	170.0000
22.6390	167.0000
22.6482	185.0000
22.6574	178.0000
22.6667	181.0000
22.6759	197.0000
22.6851	187.0000
22.6943	200.0000
22.7036	180.0000
22.7128	194.0000
22.7220	202.0000
22.7312	172.0000
22.7404	187.0000
22.7497	194.0000
22.7589	205.0000
22.7681	170.0000
22.7773	160.0000
22.7866	186.0000
22.7958	179.0000
22.8050	197.0000
22.8142	184.0000
22.8234	164.0000
22.8327	189.0000
22.8419	198.0000
22.8511	185.0000
22.8603	176.0000
22.8696	178.0000
22.8788	177.0000
22.8880	173.0000
22.8972	187.0000
22.9064	207.0000
22.9157	180.0000
22.9249	169.0000
22.9341	184.0000
22.9433	165.0000
22.9526	159.0000
22.9618	187.0000
22.9710	177.0000
22.9802	170.0000
22.9895	196.0000
22.9987	174.0000
23.0079	193.0000
23.0171	193.0000
23.0263	183.0000
23.0356	174.0000
23.0448	172.0000
23.0540	158.0000
23.0632	171.0000
23.0725	186.0000
23.0817	208.0000
23.0909	183.0000
23.1001	177.0000
23.1093	172.0000
23.1186	157.0000
23.1278	165.0000
23.1370	203.0000
23.1462	167.0000
23.1555	200.0000
23.1647	163.0000
23.1739	194.0000
23.1831	173.0000
23.1924	186.0000
23.2016	177.0000
23.2108	199.0000
23.2200	196.0000
23.2292	172.0000
23.2385	197.0000
23.2477	165.0000
23.2569	188.0000
23.2661	213.0000
23.2754	189.0000
23.2846	149.0000
23.2938	160.0000
23.3030	184.0000
23.3122	174.0000
23.3215	198.0000
23.3307	168.0000
23.3399	177.0000
23.3491	197.0000
23.3584	183.0000
23.3676	170.0000
23.3768	186.0000
23.3860	192.0000
23.3952	193.0000
23.4045	181.0000
23.4137	191.0000
23.4229	173.0000
23.4321	192.0000
23.4414	167.0000
23.4506	177.0000
23.4598	176.0000
23.4690	175.0000
23.4783	170.0000
23.4875	190.0000
23.4967	168.0000
23.5059	183.0000
23.5151	192.0000
23.5244	184.0000
23.5336	189.0000
23.5428	176.0000
23.5520	181.0000
23.5613	188.0000
23.5705	183.0000
23.5797	184.0000
23.5889	161.0000
23.5981	203.0000
23.6074	155.0000
23.6166	178.0000
23.6258	177.0000
23.6350	170.0000
23.6443	172.0000
23.6535	186.0000
23.6627	179.0000
23.6719	198.0000
23.6812	182.0000
23.6904	189.0000
23.6996	182.0000
23.7088	174.0000
23.7180	202.0000
23.7273	190.0000
23.7365	179.0000
23.7457	184.0000
23.7549	187.0000
23.7642	199.0000
23.7734	159.0000
23.7826	170.0000
23.7918	188.0000
23.8010	172.0000
23.8103	184.0000
23.8195	181.0000
23.8287	150.0000
23.8379	183.0000
23.8472	166.0000
23.8564	173.0000
23.8656	180.0000
23.8748	187.0000
23.8841	154.0000
23.8933	200.0000
23.9025	173.0000
23.9117	176.0000
23.9209	172.0000
23.9302	180.0000
23.9394	180.0000
23.9486	168.0000
23.9578	183.0000
23.9671	174.0000
23.9763	175.0000
23.9855	178.0000
23.9947	186.0000
24.0039	194.0000
24.0132	169.0000
24.0224	178.0000
24.0316	174.0000
24.0408	189.0000
24.0501	193.0000
24.0593	162.0000
24.0685	187.0000
24.0777	184.0000
24.0869	189.0000
24.0962	188.0000
24.1054	201.0000
24.1146	186.0000
24.1238	173.0000
24.1331	172.0000
24.1423	177.0000
24.1515	192.0000
24.1607	174.0000
24.1700	165.0000
24.1792	163.0000
24.1884	199.0000
24.1976	191.0000
24.2068	186.0000
24.2161	180.0000
24.2253	165.0000
24.2345	189.0000
24.2437	206.0000
24.2530	167.0000
24.2622	185.0000
24.2714	178.0000
24.2806	182.0000
24.2898	182.0000
24.2991	191.0000
24.3083	160.0000
24.3175	187.0000
24.3267	182.0000
24.3360	173.0000
24.3452	173.0000
24.3544	160.0000
24.3636	191.0000
24.3729	171.0000
24.3821	194.0000
24.3913	186.0000
24.4005	191.0000
24.4097	185.0000
24.4190	180.0000
24.4282	173.0000
24.4374	189.0000
24.4466	176.0000
24.4559	183.0000
24.4651	181.0000
24.4743	196.0000
24.4835	171.0000
24.4927	167.0000
24.5020	185.0000
24.5112	180.0000
24.5204	182.0000
24.5296	161.0000
24.5389	185.0000
24.5481	184.0000
24.5573	184.0000
24.5665	200.0000
24.5757	142.0000
24.5850	183.0000
24.5942	178.0000
24.6034	186.0000
24.6126	161.0000
24.6219	160.0000
24.6311	176.0000
24.6403	197.0000
24.6495	177.0000
24.6588	173.0000
24.6680	183.0000
24.6772	195.0000
24.6864	172.0000
24.6956	185.0000
24.7049	176.0000
24.7141	177.0000
24.7233	193.0000
24.7325	170.0000
24.7418	166.0000
24.7510	172.0000
24.7602	192.0000
24.7694	160.0000
24.7786	192.0000
24.7879	165.0000
24.7971	196.0000
24.8063	186.0000
24.8155	173.0000
24.8248	180.0000
24.8340	181.0000
24.8432	179.0000
24.8524	182.0000
24.8617	199.0000
24.8709	187.0000
24.8801	190.0000
24.8893	162.0000
24.8985	181.0000
24.9078	171.0000
24.9170	198.0000
24.9262	172.0000
24.9354	195.0000
24.9447	205.0000
24.9539	177.0000
24.9631	178.0000
24.9723	189.0000
24.9815	182.0000
24.9908	199.0000
25.0000	174.0000
25.0092	175.0000
25.0184	208.0000
25.0277	208.0000
25.0369	224.0000
25.0461	189.0000
25.0553	182.0000
25.0646	176.0000
25.0738	166.0000
25.0830	194.0000
25.0922	177.0000
25.1014	193.0000
25.1107	179.0000
25.1199	160.0000
25.1291	200.0000
25.1383	189.0000
25.1476	173.0000
25.1568	170.0000
25.1660	183.0000
25.1752	172.0000
25.1844	204.0000
25.1937	171.0000
25.2029	193.0000
25.2121	182.0000
25.2213	172.0000
25.2306	169.0000
25.2398	181.0000
25.2490	193.0000
25.2582	191.0000
25.2674	196.0000
25.2767	208.0000
25.2859	181.0000
25.2951	208.0000
25.3043	194.0000
25.3136	177.0000
25.3228	179.0000
25.3320	178.0000
25.3412	182.0000
25.3505	176.0000
25.3597	212.0000
25.3689	190.0000
25.3781	182.0000
25.3873	194.0000
25.3966	156.0000
25.4058	173.0000
25.4150	220.0000
25.4242	185.0000
25.4335	191.0000
25.4427	190.0000
25.4519	186.0000
25.4611	177.0000
25.4703	198.0000
25.4796	184.0000
25.4888	194.0000
25.4980	193.0000
25.5072	171.0000
25.5165	169.0000
25.5257	192.0000
25.5349	161.0000
25.5441	179.0000
25.5534	191.0000
25.5626	180.0000
25.5718	191.0000
25.5810	193.0000
25.5902	202.0000
25.5995	192.0000
25.6087	152.0000
25.6179	196.0000
25.6271	195.0000
25.6364	197.0000
25.6456	216.0000
25.6548	182.0000
25.6640	179.0000
25.6732	178.0000
25.6825	212.0000
25.6917	171.0000
25.7009	189.0000
25.7101	209.0000
25.7194	193.0000
25.7286	206.0000
25.7378	216.0000
25.7470	179.0000
25.7562	180.0000
25.7655	178.0000
25.7747	186.0000
25.7839	197.0000
25.7931	167.0000
25.8024	176.0000
25.8116	199.0000
25.8208	192.0000
25.8300	204.0000
25.8393	198.0000
25.8485	180.0000
25.8577	180.0000
25.8669	169.0000
25.8761	217.0000
25.8854	217.0000
25.8946	184.0000
25.9038	203.0000
25.9130	209.0000
25.9223	178.0000
25.9315	199.0000
25.9407	169.0000
25.9499	201.0000
25.9591	192.0000
25.9684	213.0000
25.9776	169.0000
25.9868	195.0000
25.9960	203.0000
26.0053	191.0000
26.0145	196.0000
26.0237	190.0000
26.0329	206.0000
26.0422	213.0000
26.0514	167.0000
26.0606	186.0000
26.0698	217.0000
26.0790	191.0000
26.0883	192.0000
26.0975	181.0000
26.1067	206.0000
26.1159	183.0000
26.1252	190.0000
26.1344	186.0000
26.1436	185.0000
26.1528	207.0000
26.1620	197.0000
26.1713	189.0000
26.1805	182.0000
26.1897	189.0000
26.1989	162.0000
26.2082	212.0000
26.2174	194.0000
26.2266	184.0000
26.2358	187.0000
26.2451	180.0000
26.2543	238.0000
26.2635	213.0000
26.2727	192.0000
26.2819	193.0000
26.2912	199.0000
26.3004	197.0000
26.3096	200.0000
26.3188	199.0000
26.3281	217.0000
26.3373	196.0000
26.3465	166.0000
26.3557	173.0000
26.3649	197.0000
26.3742	176.0000
26.3834	212.0000
26.3926	190.0000
26.4018	182.0000
26.4111	184.0000
26.4203	167.0000
26.4295	204.0000
26.4387	201.0000
26.4479	224.0000
26.4572	191.0000
26.4664	188.0000
26.4756	188.0000
26.4848	192.0000
26.4941	196.0000
26.5033	208.0000
26.5125	192.0000
26.5217	179.0000
26.5310	199.0000
26.5402	195.0000
26.5494	194.0000
26.5586	166.0000
26.5678	186.0000
26.5771	197.0000
26.5863	207.0000
26.5955	225.0000
26.6047	198.0000
26.6140	227.0000
26.6232	199.0000
26.6324	212.0000
26.6416	175.0000
26.6508	212.0000
26.6601	199.0000
26.6693	205.0000
26.6785	195.0000
26.6877	188.0000
26.6970	208.0000
26.7062	227.0000
26.7154	184.0000
26.7246	197.0000
26.7339	195.0000
26.7431	196.0000
26.7523	217.0000
26.7615	199.0000
26.7707	196.0000
26.7800	186.0000
26.7892	221.0000
26.7984	174.0000
26.8076	190.0000
26.8169	173.0000
26.8261	182.0000
26.8353	204.0000
26.8445	193.0000
26.8537	197.0000
26.8630	199.0000
26.8722	220.0000
26.8814	202.0000
26.8906	222.0000
26.8999	230.0000
26.9091	196.0000
26.9183	204.0000
26.9275	204.0000
26.9367	212.0000
26.9460	211.0000
26.9552	187.0000
26.9644	195.0000
26.9736	223.0000
26.9829	193.0000
26.9921	174.0000
27.0013	196.0000
27.0105	187.0000
27.0198	189.0000
27.0290	195.0000
27.0382	195.0000
27.0474	212.0000
27.0566	207.0000
27.0659	209.0000
27.0751	202.0000
27.0843	192.0000
27.0935	211.0000
27.1028	202.0000
27.1120	204.0000
27.1212	198.0000
27.1304	199.0000
27.1396	206.0000
27.1489	206.0000
27.1581	184.0000
27.1673	160.0000
27.1765	204.0000
27.1858	182.0000
27.1950	222.0000
27.2042	201.0000
27.2134	201.0000
27.2227	185.0000
27.2319	212.0000
27.2411	214.0000
27.2503	231.0000
27.2595	180.0000
27.2688	219.0000
27.2780	198.0000
27.2872	205.0000
27.2964	198.0000
27.3057	207.0000
27.3149	200.0000
27.3241	195.0000
27.3333	206.0000
27.3425	192.0000
27.3518	193.0000
27.3610	242.0000
27.3702	181.0000
27.3794	200.0000
27.3887	228.0000
27.3979	193.0000
27.4071	224.0000
27.4163	209.0000
27.4256	177.0000
27.4348	205.0000
27.4440	224.0000
27.4532	216.0000
27.4624	204.0000
27.4717	189.0000
27.4809	216.0000
27.4901	206.0000
27.4993	204.0000
27.5086	238.0000
27.5178	230.0000
27.5270	227.0000
27.5362	185.0000
27.5454	187.0000
27.5547	209.0000
27.5639	201.0000
27.5731	215.0000
27.5823	210.0000
27.5916	234.0000
27.6008	225.0000
27.6100	203.0000
27.6192	216.0000
27.6284	188.0000
27.6377	215.0000
27.6469	219.0000
27.6561	203.0000
27.6653	227.0000
27.6746	188.0000
27.6838	172.0000
27.6930	210.0000
27.7022	193.0000
27.7115	202.0000
27.7207	215.0000
27.7299	199.0000
27.7391	192.0000
27.7483	212.0000
27.7576	222.0000
27.7668	227.0000
27.7760	199.0000
27.7852	232.0000
27.7945	192.0000
27.8037	192.0000
27.8129	206.0000
27.8221	176.0000
27.8313	202.0000
27.8406	219.0000
27.8498	222.0000
27.8590	206.0000
27.8682	195.0000
27.8775	211.0000
27.8867	179.0000
27.8959	196.0000
27.9051	234.0000
27.9144	200.0000
27.9236	204.0000
27.9328	197.0000
27.9420	220.0000
27.9512	214.0000
27.9605	193.0000
27.9697	208.0000
27.9789	210.0000
27.9881	208.0000
27.9974	227.0000
28.0066	250.0000
28.0158	247.0000
28.0250	201.0000
28.0342	201.0000
28.0435	188.0000
28.0527	193.0000
28.0619	230.0000
28.0711	219.0000
28.0804	206.0000
28.0896	191.0000
28.0988	221.0000
28.1080	206.0000
28.1172	201.0000
28.1265	207.0000
28.1357	213.0000
28.1449	203.0000
28.1541	230.0000
28.1634	244.0000
28.1726	210.0000
28.1818	209.0000
28.1910	211.0000
28.2003	212.0000
28.2095	208.0000
28.2187	198.0000
28.2279	208.0000
28.2371	197.0000
28.2464	199.0000
28.2556	211.0000
28.2648	210.0000
28.2740	255.0000
28.2833	226.0000
28.2925	225.0000
28.3017	214.0000
28.3109	198.0000
28.3201	206.0000
28.3294	191.0000
28.3386	204.0000
28.3478	219.0000
28.3570	212.0000
28.3663	216.0000
28.3755	220.0000
28.3847	218.0000
28.3939	208.0000
28.4032	216.0000
28.4124	189.0000
28.4216	189.0000
28.4308	207.0000
28.4400	215.0000
28.4493	214.0000
28.4585	222.0000
28.4677	207.0000
28.4769	237.0000
28.4862	197.0000
28.4954	214.0000
28.5046	216.0000
28.5138	198.0000
28.5230	173.0000
28.5323	223.0000
28.5415	206.0000
28.5507	193.0000
28.5599	230.0000
28.5692	198.0000
28.5784	233.0000
28.5876	233.0000
28.5968	192.0000
28.6061	225.0000
28.6153	221.0000
28.6245	198.0000
28.6337	208.0000
28.6429	213.0000
28.6522	230.0000
28.6614	223.0000
28.6706	206.0000
28.6798	237.0000
28.6891	203.0000
28.6983	184.0000
28.7075	202.0000
28.7167	221.0000
28.7259	231.0000
28.7352	187.0000
28.7444	236.0000
28.7536	241.0000
28.7628	213.0000
28.7721	197.0000
28.7813	219.0000
28.7905	223.0000
28.7997	230.0000
28.8089	223.0000
28.8182	205.0000
28.8274	221.0000
28.8366	211.0000
28.8458	210.0000
28.8551	214.0000
28.8643	200.0000
28.8735	207.0000
28.8827	197.0000
28.8920	192.0000
28.9012	198.0000
28.9104	194.0000
28.9196	213.0000
28.9288	223.0000
28.9381	215.0000
28.9473	204.0000
28.9565	218.0000
28.9657	215.0000
28.9750	203.0000
28.9842	222.0000
28.9934	205.0000
29.0026	213.0000
29.0118	205.0000
29.0211	229.0000
29.0303	222.0000
29.0395	206.0000
29.0487	214.0000
29.0580	206.0000
29.0672	228.0000
29.0764	208.0000
29.0856	233.0000
29.0949	207.0000
29.1041	200.0000
29.1133	219.0000
29.1225	223.0000
29.1317	210.0000
29.1410	244.0000
29.1502	245.0000
29.1594	219.0000
29.1686	184.0000
29.1779	207.0000
29.1871	200.0000
29.1963	240.0000
29.2055	216.0000
29.2147	223.0000
29.2240	223.0000
29.2332	189.0000
29.2424	205.0000
29.2516	227.0000
29.2609	222.0000
29.2701	255.0000
29.2793	187.0000
29.2885	222.0000
29.2977	229.0000
29.3070	220.0000
29.3162	214.0000
29.3254	226.0000
29.3346	208.0000
29.3439	209.0000
29.3531	224.0000
29.3623	208.0000
29.3715	204.0000
29.3808	218.0000
29.3900	218.0000
29.3992	207.0000
29.4084	196.0000
29.4176	203.0000
29.4269	216.0000
29.4361	223.0000
29.4453	195.0000
29.4545	214.0000
29.4638	225.0000
29.4730	218.0000
29.4822	215.0000
29.4914	253.0000
29.5006	226.0000
29.5099	210.0000
29.5191	206.0000
29.5283	216.0000
29.5375	213.0000
29.5468	200.0000
29.5560	206.0000
29.5652	210.0000
29.5744	227.0000
29.5837	225.0000
29.5929	176.0000
29.6021	193.0000
29.6113	178.0000
29.6205	204.0000
29.6298	215.0000
29.6390	237.0000
29.6482	222.0000
29.6574	209.0000
29.6667	212.0000
29.6759	224.0000
29.6851	210.0000
29.6943	240.0000
29.7035	210.0000
29.7128	190.0000
29.7220	215.0000
29.7312	202.0000
29.7404	217.0000
29.7497	240.0000
29.7589	212.0000
29.7681	191.0000
29.7773	219.0000
29.7866	236.0000
29.7958	189.0000
29.8050	199.0000
29.8142	204.0000
29.8234	218.0000
29.8327	223.0000
29.8419	223.0000
29.8511	212.0000
29.8603	209.0000
29.8696	216.0000
29.8788	211.0000
29.8880	213.0000
29.8972	173.0000
29.9064	218.0000
29.9157	202.0000
29.9249	233.0000
29.9341	203.0000
29.9433	204.0000
29.9526	195.0000
29.9618	217.0000
29.9710	218.0000
29.9802	215.0000
29.9894	209.0000
29.9987	245.0000
30.0079	233.0000
30.0171	229.0000
30.0263	216.0000
30.0356	210.0000
30.0448	201.0000
30.0540	228.0000
30.0632	216.0000
30.0725	200.0000
30.0817	231.0000
30.0909	230.0000
30.1001	222.0000
30.1093	199.0000
30.1186	209.0000
30.1278	219.0000
30.1370	193.0000
30.1462	224.0000
30.1555	215.0000
30.1647	221.0000
30.1739	211.0000
30.1831	228.0000
30.1923	236.0000
30.2016	264.0000
30.2108	230.0000
30.2200	222.0000
30.2292	235.0000
30.2385	241.0000
30.2477	251.0000
30.2569	251.0000
30.2661	275.0000
30.2754	334.0000
30.2846	445.0000
30.2938	560.0000
30.3030	719.0000
30.3122	810.0000
30.3215	775.0000
30.3307	742.0000
30.3399	530.0000
30.3491	345.0000
30.3584	283.0000
30.3676	278.0000
30.3768	286.0000
30.3860	235.0000
30.3952	229.0000
30.4045	216.0000
30.4137	218.0000
30.4229	219.0000
30.4321	257.0000
30.4414	270.0000
30.4506	270.0000
30.4598	282.0000
30.4690	317.0000
30.4782	380.0000
30.4875	460.0000
30.4967	514.0000
30.5059	475.0000
30.5151	411.0000
30.5244	336.0000
30.5336	300.0000
30.5428	233.0000
30.5520	246.0000
30.5613	249.0000
30.5705	229.0000
30.5797	251.0000
30.5889	228.0000
30.5981	184.0000
30.6074	237.0000
30.6166	210.0000
30.6258	226.0000
30.6350	229.0000
30.6443	226.0000
30.6535	241.0000
30.6627	210.0000
30.6719	238.0000
30.6811	206.0000
30.6904	229.0000
30.6996	208.0000
30.7088	191.0000
30.7180	238.0000
30.7273	207.0000
30.7365	216.0000
30.7457	227.0000
30.7549	208.0000
30.7642	223.0000
30.7734	217.0000
30.7826	253.0000
30.7918	199.0000
30.8010	217.0000
30.8103	195.0000
30.8195	207.0000
30.8287	206.0000
30.8379	190.0000
30.8472	196.0000
30.8564	213.0000
30.8656	212.0000
30.8748	224.0000
30.8840	210.0000
30.8933	189.0000
30.9025	208.0000
30.9117	212.0000
30.9209	237.0000
30.9302	202.0000
30.9394	210.0000
30.9486	213.0000
30.9578	200.0000
30.9671	201.0000
30.9763	208.0000
30.9855	181.0000
30.9947	192.0000
31.0039	204.0000
31.0132	228.0000
31.0224	196.0000
31.0316	195.0000
31.0408	209.0000
31.0501	209.0000
31.0593	213.0000
31.0685	211.0000
31.0777	219.0000
31.0869	195.0000
31.0962	228.0000
31.1054	210.0000
31.1146	195.0000
31.1238	195.0000
31.1331	199.0000
31.1423	218.0000
31.1515	185.0000
31.1607	228.0000
31.1699	197.0000
31.1792	191.0000
31.1884	185.0000
31.1976	209.0000
31.2068	211.0000
31.2161	204.0000
31.2253	267.0000
31.2345	207.0000
31.2437	208.0000
31.2530	206.0000
31.2622	205.0000
31.2714	211.0000
31.2806	214.0000
31.2898	206.0000
31.2991	213.0000
31.3083	199.0000
31.3175	219.0000
31.3267	208.0000
31.3360	206.0000
31.3452	222.0000
31.3544	218.0000
31.3636	219.0000
31.3728	223.0000
31.3821	207.0000
31.3913	207.0000
31.4005	213.0000
31.4097	199.0000
31.4190	222.0000
31.4282	231.0000
31.4374	215.0000
31.4466	227.0000
31.4559	213.0000
31.4651	225.0000
31.4743	212.0000
31.4835	202.0000
31.4927	208.0000
31.5020	240.0000
31.5112	210.0000
31.5204	209.0000
31.5296	245.0000
31.5389	203.0000
31.5481	211.0000
31.5573	232.0000
31.5665	222.0000
31.5757	228.0000
31.5850	214.0000
31.5942	206.0000
31.6034	185.0000
31.6126	229.0000
31.6219	211.0000
31.6311	223.0000
31.6403	206.0000
31.6495	188.0000
31.6587	219.0000
31.6680	192.0000
31.6772	210.0000
31.6864	204.0000
31.6956	209.0000
31.7049	231.0000
31.7141	205.0000
31.7233	228.0000
31.7325	212.0000
31.7418	205.0000
31.7510	231.0000
31.7602	230.0000
31.7694	214.0000
31.7786	201.0000
31.7879	185.0000
31.7971	186.0000
31.8063	199.0000
31.8155	219.0000
31.8248	208.0000
31.8340	184.0000
31.8432	201.0000
31.8524	194.0000
31.8616	188.0000
31.8709	221.0000
31.8801	232.0000
31.8893	234.0000
31.8985	198.0000
31.9078	216.0000
31.9170	200.0000
31.9262	201.0000
31.9354	221.0000
31.9447	216.0000
31.9539	230.0000
31.9631	205.0000
31.9723	239.0000
31.9815	230.0000
31.9908	223.0000
32.0000	223.0000
32.0092	212.0000
32.0184	198.0000
32.0277	208.0000
32.0369	230.0000
32.0461	228.0000
32.0553	208.0000
32.0645	206.0000
32.0738	205.0000
32.0830	199.0000
32.0922	217.0000
32.1014	202.0000
32.1107	231.0000
32.1199	199.0000
32.1291	211.0000
32.1383	220.0000
32.1476	213.0000
32.1568	198.0000
32.1660	201.0000
32.1752	215.0000
32.1844	223.0000
32.1937	227.0000
32.2029	222.0000
32.2121	173.0000
32.2213	217.0000
32.2306	215.0000
32.2398	248.0000
32.2490	208.0000
32.2582	205.0000
32.2674	195.0000
32.2767	241.0000
32.2859	212.0000
32.2951	216.0000
32.3043	200.0000
32.3136	214.0000
32.3228	223.0000
32.3320	205.0000
32.3412	193.0000
32.3504	205.0000
32.3597	216.0000
32.3689	202.0000
32.3781	196.0000
32.3873	231.0000
32.3966	220.0000
32.4058	210.0000
32.4150	219.0000
32.4242	217.0000
32.4335	212.0000
32.4427	195.0000
32.4519	237.0000
32.4611	210.0000
32.4703	197.0000
32.4796	234.0000
32.4888	211.0000
32.4980	186.0000
32.5072	193.0000
32.5165	224.0000
32.5257	226.0000
32.5349	221.0000
32.5441	220.0000
32.5533	197.0000
32.5626	199.0000
32.5718	212.0000
32.5810	221.0000
32.5902	214.0000
32.5995	214.0000
32.6087	229.0000
32.6179	196.0000
32.6271	204.0000
32.6364	198.0000
32.6456	233.0000
32.6548	208.0000
32.6640	194.0000
32.6732	199.0000
32.6825	210.0000
32.6917	205.0000
32.7009	220.0000
32.7101	206.0000
32.7194	202.0000
32.7286	233.0000
32.7378	205.0000
32.7470	231.0000
32.7562	256.0000
32.7655	222.0000
32.7747	210.0000
32.7839	199.0000
32.7931	220.0000
32.8024	226.0000
32.8116	235.0000
32.8208	220.0000
32.8300	192.0000
32.8392	196.0000
32.8485	214.0000
32.8577	225.0000
32.8669	216.0000
32.8761	218.0000
32.8854	211.0000
32.8946	216.0000
32.9038	239.0000
32.9130	218.0000
32.9223	196.0000
32.9315	206.0000
32.9407	197.0000
32.9499	214.0000
32.9591	177.0000
32.9684	232.0000
32.9776	219.0000
32.9868	232.0000
32.9960	202.0000
33.0053	210.0000
33.0145	240.0000
33.0237	225.0000
33.0329	219.0000
33.0421	221.0000
33.0514	259.0000
33.0606	275.0000
33.0698	306.0000
33.0790	308.0000
33.0883	313.0000
33.0975	285.0000
33.1067	298.0000
33.1159	256.0000
33.1252	235.0000
33.1344	220.0000
33.1436	225.0000
33.1528	195.0000
33.1620	211.0000
33.1713	175.0000
33.1805	220.0000
33.1897	189.0000
33.1989	217.0000
33.2082	250.0000
33.2174	231.0000
33.2266	207.0000
33.2358	228.0000
33.2450	220.0000
33.2543	229.0000
33.2635	254.0000
33.2727	265.0000
33.2819	265.0000
33.2912	248.0000
33.3004	247.0000
33.3096	238.0000
33.3188	202.0000
33.3281	214.0000
33.3373	185.0000
33.3465	217.0000
33.3557	218.0000
33.3649	205.0000
33.3742	245.0000
33.3834	230.0000
33.3926	203.0000
33.4018	192.0000
33.4111	195.0000
33.4203	213.0000
33.4295	200.0000
33.4387	209.0000
33.4479	197.0000
33.4572	196.0000
33.4664	202.0000
33.4756	183.0000
33.4848	218.0000
33.4941	207.0000
33.5033	186.0000
33.5125	204.0000
33.5217	207.0000
33.5309	213.0000
33.5402	190.0000
33.5494	230.0000
33.5586	208.0000
33.5678	222.0000
33.5771	199.0000
33.5863	205.0000
33.5955	212.0000
33.6047	202.0000
33.6140	219.0000
33.6232	206.0000
33.6324	198.0000
33.6416	231.0000
33.6508	203.0000
33.6601	234.0000
33.6693	187.0000
33.6785	223.0000
33.6877	216.0000
33.6970	235.0000
33.7062	196.0000
33.7154	199.0000
33.7246	221.0000
33.7338	191.0000
33.7431	206.0000
33.7523	181.0000
33.7615	216.0000
33.7707	218.0000
33.7800	182.0000
33.7892	217.0000
33.7984	216.0000
33.8076	192.0000
33.8169	226.0000
33.8261	231.0000
33.8353	202.0000
33.8445	222.0000
33.8537	204.0000
33.8630	220.0000
33.8722	215.0000
33.8814	212.0000
33.8906	220.0000
33.8999	199.0000
33.9091	234.0000
33.9183	222.0000
33.9275	199.0000
33.9367	205.0000
33.9460	196.0000
33.9552	196.0000
33.9644	207.0000
33.9736	204.0000
33.9829	183.0000
33.9921	188.0000
34.0013	200.0000
34.0105	214.0000
34.0197	215.0000
34.0290	192.0000
34.0382	215.0000
34.0474	213.0000
34.0566	230.0000
34.0659	206.0000
34.0751	218.0000
34.0843	215.0000
34.0935	200.0000
34.1028	209.0000
34.1120	227.0000
34.1212	203.0000
34.1304	221.0000
34.1396	226.0000
34.1489	169.0000
34.1581	204.0000
34.1673	196.0000
34.1765	222.0000
34.1858	200.0000
34.1950	221.0000
34.2042	190.0000
34.2134	192.0000
34.2226	167.0000
34.2319	173.0000
34.2411	187.0000
34.2503	182.0000
34.2595	200.0000
34.2688	205.0000
34.2780	211.0000
34.2872	184.0000
34.2964	214.0000
34.3057	192.0000
34.3149	224.0000
34.3241	198.0000
34.3333	226.0000
34.3425	206.0000
34.3518	181.0000
34.3610	207.0000
34.3702	195.0000
34.3794	202.0000
34.3887	184.0000
34.3979	174.0000
34.4071	188.0000
34.4163	206.0000
34.4255	172.0000
34.4348	191.0000
34.4440	181.0000
34.4532	186.0000
34.4624	187.0000
34.4717	203.0000
34.4809	214.0000
34.4901	203.0000
34.4993	182.0000
34.5086	193.0000
34.5178	218.0000
34.5270	178.0000
34.5362	205.0000
34.5454	204.0000
34.5547	177.0000
34.5639	197.0000
34.5731	204.0000
34.5823	174.0000
34.5916	189.0000
34.6008	174.0000
34.6100	191.0000
34.6192	195.0000
34.6284	175.0000
34.6377	187.0000
34.6469	196.0000
34.6561	174.0000
34.6653	206.0000
34.6746	194.0000
34.6838	179.0000
34.6930	179.0000
34.7022	185.0000
34.7114	184.0000
34.7207	195.0000
34.7299	193.0000
34.7391	198.0000
34.7483	186.0000
34.7576	171.0000
34.7668	207.0000
34.7760	189.0000
34.7852	190.0000
34.7945	186.0000
34.8037	234.0000
34.8129	179.0000
34.8221	187.0000
34.8313	205.0000
34.8406	160.0000
34.8498	192.0000
34.8590	187.0000
34.8682	204.0000
34.8775	201.0000
34.8867	176.0000
34.8959	212.0000
34.9051	198.0000
34.9143	179.0000
34.9236	211.0000
34.9328	205.0000
34.9420	200.0000
34.9512	212.0000
34.9605	199.0000
34.9697	221.0000
34.9789	188.0000
34.9881	177.0000
34.9974	189.0000
35.0066	182.0000
35.0158	210.0000
35.0250	175.0000
35.0342	174.0000
35.0435	191.0000
35.0527	189.0000
35.0619	180.0000
35.0711	159.0000
35.0804	185.0000
35.0896	192.0000
35.0988	184.0000
35.1080	178.0000
35.1172	185.0000
35.1265	165.0000
35.1357	176.0000
35.1449	163.0000
35.1541	196.0000
35.1634	193.0000
35.1726	182.0000
35.1818	174.0000
35.1910	194.0000
35.2002	188.0000
35.2095	162.0000
35.2187	200.0000
35.2279	182.0000
35.2371	195.0000
35.2464	173.0000
35.2556	161.0000
35.2648	168.0000
35.2740	182.0000
35.2833	181.0000
35.2925	173.0000
35.3017	167.0000
35.3109	158.0000
35.3201	170.0000
35.3294	193.0000
35.3386	178.0000
35.3478	170.0000
35.3570	166.0000
35.3663	169.0000
35.3755	191.0000
35.3847	187.0000
35.3939	179.0000
35.4031	187.0000
35.4124	162.0000
35.4216	192.0000
35.4308	193.0000
35.4400	188.0000
35.4493	193.0000
35.4585	177.0000
35.4677	148.0000
35.4769	135.0000
35.4862	191.0000
35.4954	166.0000
35.5046	168.0000
35.5138	165.0000
35.5230	161.0000
35.5323	165.0000
35.5415	160.0000
35.5507	170.0000
35.5599	166.0000
35.5692	163.0000
35.5784	178.0000
35.5876	157.0000
35.5968	162.0000
35.6060	159.0000
35.6153	165.0000
35.6245	174.0000
35.6337	162.0000
35.6429	156.0000
35.6522	186.0000
35.6614	155.0000
35.6706	162.0000
35.6798	145.0000
35.6891	165.0000
35.6983	163.0000
35.7075	161.0000
35.7167	161.0000
35.7259	160.0000
35.7352	146.0000
35.7444	162.0000
35.7536	171.0000
35.7628	170.0000
35.7721	171.0000
35.7813	173.0000
35.7905	155.0000
35.7997	166.0000
35.8089	155.0000
35.8182	160.0000
35.8274	162.0000
35.8366	154.0000
35.8458	180.0000
35.8551	164.0000
35.8643	156.0000
35.8735	162.0000
35.8827	156.0000
35.8919	166.0000
35.9012	179.0000
35.9104	149.0000
35.9196	143.0000
35.9288	172.0000
35.9381	160.0000
35.9473	154.0000
35.9565	149.0000
35.9657	153.0000
35.9750	145.0000
35.9842	151.0000
35.9934	159.0000
36.0026	179.0000
36.0118	159.0000
36.0211	147.0000
36.0303	153.0000
36.0395	145.0000
36.0487	160.0000
36.0580	168.0000
36.0672	161.0000
36.0764	181.0000
36.0856	145.0000
36.0948	162.0000
36.1041	157.0000
36.1133	157.0000
36.1225	158.0000
36.1317	147.0000
36.1410	153.0000
36.1502	169.0000
36.1594	146.0000
36.1686	143.0000
36.1779	150.0000
36.1871	139.0000
36.1963	148.0000
36.2055	154.0000
36.2147	144.0000
36.2240	133.0000
36.2332	140.0000
36.2424	156.0000
36.2516	145.0000
36.2609	146.0000
36.2701	176.0000
36.2793	133.0000
36.2885	130.0000
36.2977	152.0000
36.3070	153.0000
36.3162	137.0000
36.3254	131.0000
36.3346	134.0000
36.3439	158.0000
36.3531	149.0000
36.3623	155.0000
36.3715	149.0000
36.3807	155.0000
36.3900	150.0000
36.3992	117.0000
36.4084	139.0000
36.4176	165.0000
36.4269	165.0000
36.4361	162.0000
36.4453	131.0000
36.4545	137.0000
36.4638	160.0000
36.4730	130.0000
36.4822	147.0000
36.4914	164.0000
36.5006	151.0000
36.5099	153.0000
36.5191	141.0000
36.5283	138.0000
36.5375	146.0000
36.5468	134.0000
36.5560	144.0000
36.5652	148.0000
36.5744	148.0000
36.5836	155.0000
36.5929	143.0000
36.6021	101.0000
36.6113	139.0000
36.6205	143.0000
36.6298	155.0000
36.6390	156.0000
36.6482	135.0000
36.6574	122.0000
36.6667	115.0000
36.6759	140.0000
36.6851	129.0000
36.6943	137.0000
36.7035	143.0000
36.7128	120.0000
36.7220	148.0000
36.7312	148.0000
36.7404	154.0000
36.7497	125.0000
36.7589	143.0000
36.7681	124.0000
36.7773	147.0000
36.7865	145.0000
36.7958	138.0000
36.8050	134.0000
36.8142	133.0000
36.8234	125.0000
36.8327	128.0000
36.8419	135.0000
36.8511	168.0000
36.8603	121.0000
36.8696	137.0000
36.8788	148.0000
36.8880	123.0000
36.8972	135.0000
36.9064	132.0000
36.9157	104.0000
36.9249	120.0000
36.9341	109.0000
36.9433	132.0000
36.9526	128.0000
36.9618	157.0000
36.9710	130.0000
36.9802	139.0000
36.9894	152.0000
36.9987	124.0000
37.0079	152.0000
37.0171	129.0000
37.0263	114.0000
37.0356	143.0000
37.0448	135.0000
37.0540	119.0000
37.0632	141.0000
37.0724	130.0000
37.0817	116.0000
37.0909	143.0000
37.1001	135.0000
37.1093	114.0000
37.1186	128.0000
37.1278	149.0000
37.1370	131.0000
37.1462	153.0000
37.1555	138.0000
37.1647	136.0000
37.1739	139.0000
37.1831	128.0000
37.1923	130.0000
37.2016	132.0000
37.2108	143.0000
37.2200	143.0000
37.2292	152.0000
37.2385	120.0000
37.2477	129.0000
37.2569	157.0000
37.2661	159.0000
37.2753	170.0000
37.2846	190.0000
37.2938	233.0000
37.3030	294.0000
37.3122	387.0000
37.3215	485.0000
37.3307	612.0000
37.3399	562.0000
37.3491	564.0000
37.3584	492.0000
37.3676	369.0000
37.3768	285.0000
37.3860	255.0000
37.3952	197.0000
37.4045	176.0000
37.4137	176.0000
37.4229	173.0000
37.4321	147.0000
37.4414	147.0000
37.4506	132.0000
37.4598	153.0000
37.4690	132.0000
37.4782	140.0000
37.4875	143.0000
37.4967	155.0000
37.5059	146.0000
37.5151	174.0000
37.5244	166.0000
37.5336	206.0000
37.5428	294.0000
37.5520	333.0000
37.5612	390.0000
37.5705	366.0000
37.5797	318.0000
37.5889	318.0000
37.5981	243.0000
37.6074	220.0000
37.6166	172.0000
37.6258	179.0000
37.6350	171.0000
37.6443	144.0000
37.6535	143.0000
37.6627	124.0000
37.6719	132.0000
37.6811	132.0000
37.6904	127.0000
37.6996	99.0000
37.7088	120.0000
37.7180	119.0000
37.7273	124.0000
37.7365	122.0000
37.7457	121.0000
37.7549	111.0000
37.7641	115.0000
37.7734	114.0000
37.7826	120.0000
37.7918	126.0000
37.8010	148.0000
37.8103	123.0000
37.8195	97.0000
37.8287	117.0000
37.8379	124.0000
37.8472	104.0000
37.8564	113.0000
37.8656	97.0000
37.8748	132.0000
37.8840	123.0000
37.8933	123.0000
37.9025	102.0000
37.9117	110.0000
37.9209	117.0000
37.9302	115.0000
37.9394	120.0000
37.9486	113.0000
37.9578	107.0000
37.9670	108.0000
37.9763	118.0000
37.9855	98.0000
37.9947	121.0000
38.0039	140.0000
38.0132	102.0000
38.0224	115.0000
38.0316	118.0000
38.0408	143.0000
38.0501	97.0000
38.0593	122.0000
38.0685	122.0000
38.0777	114.0000
38.0869	105.0000
38.0962	120.0000
38.1054	123.0000
38.1146	119.0000
38.1238	128.0000
38.1331	121.0000
38.1423	112.0000
38.1515	118.0000
38.1607	121.0000
38.1699	103.0000
38.1792	119.0000
38.1884	112.0000
38.1976	113.0000
38.2068	119.0000
38.2161	126.0000
38.2253	118.0000
38.2345	107.0000
38.2437	131.0000
38.2529	119.0000
38.2622	117.0000
38.2714	112.0000
38.2806	116.0000
38.2898	101.0000
38.2991	117.0000
38.3083	108.0000
38.3175	123.0000
38.3267	106.0000
38.3360	111.0000
38.3452	117.0000
38.3544	110.0000
38.3636	100.0000
38.3728	125.0000
38.3821	117.0000
38.3913	111.0000
38.4005	113.0000
38.4097	129.0000
38.4190	126.0000
38.4282	103.0000
38.4374	123.0000
38.4466	119.0000
38.4558	100.0000
38.4651	129.0000
38.4743	139.0000
38.4835	125.0000
38.4927	110.0000
38.5020	113.0000
38.5112	90.0000
38.5204	121.0000
38.5296	112.0000
38.5389	114.0000
38.5481	136.0000
38.5573	118.0000
38.5665	111.0000
38.5757	111.0000
38.5850	109.0000
38.5942	131.0000
38.6034	98.0000
38.6126	104.0000
38.6219	114.0000
38.6311	119.0000
38.6403	121.0000
38.6495	105.0000
38.6587	90.0000
38.6680	108.0000
38.6772	97.0000
38.6864	92.0000
38.6956	107.0000
38.7049	105.0000
38.7141	105.0000
38.7233	121.0000
38.7325	120.0000
38.7417	105.0000
38.7510	99.0000
38.7602	111.0000
38.7694	117.0000
38.7786	107.0000
38.7879	107.0000
38.7971	113.0000
38.8063	101.0000
38.8155	105.0000
38.8248	120.0000
38.8340	108.0000
38.8432	129.0000
38.8524	129.0000
38.8616	100.0000
38.8709	125.0000
38.8801	117.0000
38.8893	136.0000
38.8985	108.0000
38.9078	122.0000
38.9170	111.0000
38.9262	106.0000
38.9354	113.0000
38.9446	122.0000
38.9539	106.0000
38.9631	75.0000
38.9723	121.0000
38.9815	110.0000
38.9908	101.0000
39.0000	117.0000
39.0092	111.0000
39.0184	110.0000
39.0277	119.0000
39.0369	104.0000
39.0461	105.0000
39.0553	120.0000
39.0645	107.0000
39.0738	100.0000
39.0830	87.0000
39.0922	100.0000
39.1014	106.0000
39.1107	118.0000
39.1199	124.0000
39.1291	132.0000
39.1383	111.0000
39.1475	105.0000
39.1568	92.0000
39.1660	122.0000
39.1752	130.0000
39.1844	122.0000
39.1937	126.0000
39.2029	102.0000
39.2121	105.0000
39.2213	100.0000
39.2306	119.0000
39.2398	114.0000
39.2490	119.0000
39.2582	102.0000
39.2674	132.0000
39.2767	89.0000
39.2859	96.0000
39.2951	107.0000
39.3043	103.0000
39.3136	88.0000
39.3228	106.0000
39.3320	112.0000
39.3412	105.0000
39.3504	108.0000
39.3597	117.0000
39.3689	95.0000
39.3781	104.0000
39.3873	105.0000
39.3966	114.0000
39.4058	110.0000
39.4150	112.0000
39.4242	103.0000
39.4334	109.0000
39.4427	107.0000
39.4519	119.0000
39.4611	119.0000
39.4703	94.0000
39.4796	116.0000
39.4888	120.0000
39.4980	127.0000
39.5072	113.0000
39.5165	112.0000
39.5257	110.0000
39.5349	105.0000
39.5441	110.0000
39.5533	105.0000
39.5626	91.0000
39.5718	110.0000
39.5810	117.0000
39.5902	110.0000
39.5995	101.0000
39.6087	87.0000
39.6179	117.0000
39.6271	97.0000
39.6363	115.0000
39.6456	113.0000
39.6548	110.0000
39.6640	129.0000
39.6732	134.0000
39.6825	144.0000
39.6917	164.0000
39.7009	144.0000
39.7101	127.0000
39.7194	125.0000
39.7286	143.0000
39.7378	131.0000
39.7470	111.0000
39.7562	112.0000
39.7655	114.0000
39.7747	129.0000
39.7839	126.0000
39.7931	102.0000
39.8024	92.0000
39.8116	106.0000
39.8208	102.0000
39.8300	107.0000
39.8392	117.0000
39.8485	111.0000
39.8577	113.0000
39.8669	114.0000
39.8761	105.0000
39.8854	117.0000
39.8946	106.0000
39.9038	102.0000
39.9130	131.0000
39.9222	130.0000
39.9315	110.0000
39.9407	125.0000
39.9499	117.0000
39.9591	118.0000
39.9684	148.0000
39.9776	117.0000
39.9868	99.0000
39.9960	126.0000
40.0053	106.0000
40.0145	125.0000
40.0237	104.0000
40.0329	101.0000
40.0421	103.0000
40.0514	86.0000
40.0606	104.0000
40.0698	106.0000
40.0790	117.0000
40.0883	107.0000
40.0975	113.0000
40.1067	111.0000
40.1159	115.0000
40.1251	122.0000
40.1344	90.0000
40.1436	98.0000
40.1528	113.0000
40.1620	105.0000
40.1713	115.0000
40.1805	106.0000
40.1897	118.0000
40.1989	107.0000
40.2082	113.0000
40.2174	111.0000
40.2266	121.0000
40.2358	103.0000
40.2450	105.0000
40.2543	123.0000
40.2635	81.0000
40.2727	98.0000
40.2819	118.0000
40.2912	120.0000
40.3004	104.0000
40.3096	109.0000
40.3188	82.0000
40.3280	106.0000
40.3373	104.0000
40.3465	101.0000
40.3557	114.0000
40.3649	126.0000
40.3742	109.0000
40.3834	115.0000
40.3926	104.0000
40.4018	118.0000
40.4111	107.0000
40.4203	114.0000
40.4295	111.0000
40.4387	94.0000
40.4479	106.0000
40.4572	104.0000
40.4664	100.0000
40.4756	116.0000
40.4848	109.0000
40.4941	119.0000
40.5033	97.0000
40.5125	89.0000
40.5217	113.0000
40.5309	89.0000
40.5402	114.0000
40.5494	111.0000
40.5586	107.0000
40.5678	104.0000
40.5771	100.0000
40.5863	112.0000
40.5955	124.0000
40.6047	102.0000
40.6139	77.0000
40.6232	116.0000
40.6324	118.0000
40.6416	108.0000
40.6508	91.0000
40.6601	98.0000
40.6693	106.0000
40.6785	118.0000
40.6877	100.0000
40.6970	96.0000
40.7062	88.0000
40.7154	108.0000
40.7246	104.0000
40.7338	103.0000
40.7431	92.0000
40.7523	105.0000
40.7615	112.0000
40.7707	116.0000
40.7800	110.0000
40.7892	99.0000
40.7984	85.0000
40.8076	122.0000
40.8168	115.0000
40.8261	100.0000
40.8353	102.0000
40.8445	113.0000
40.8537	95.0000
40.8630	125.0000
40.8722	119.0000
40.8814	109.0000
40.8906	94.0000
40.8999	106.0000
40.9091	88.0000
40.9183	103.0000
40.9275	102.0000
40.9367	103.0000
40.9460	119.0000
40.9552	96.0000
40.9644	110.0000
40.9736	94.0000
40.9829	106.0000
40.9921	130.0000
41.0013	108.0000
41.0105	91.0000
41.0197	106.0000
41.0290	100.0000
41.0382	101.0000
41.0474	89.0000
41.0566	133.0000
41.0659	111.0000
41.0751	111.0000
41.0843	103.0000
41.0935	115.0000
41.1027	105.0000
41.1120	120.0000
41.1212	97.0000
41.1304	95.0000
41.1396	88.0000
41.1489	108.0000
41.1581	111.0000
41.1673	124.0000
41.1765	105.0000
41.1858	124.0000
41.1950	111.0000
41.2042	95.0000
41.2134	96.0000
41.2226	108.0000
41.2319	98.0000
41.2411	110.0000
41.2503	99.0000
41.2595	109.0000
41.2688	101.0000
41.2780	129.0000
41.2872	110.0000
41.2964	108.0000
41.3056	118.0000
41.3149	93.0000
41.3241	105.0000
41.3333	111.0000
41.3425	114.0000
41.3518	111.0000
41.3610	117.0000
41.3702	96.0000
41.3794	99.0000
41.3887	89.0000
41.3979	111.0000
41.4071	109.0000
41.4163	106.0000
41.4255	103.0000
41.4348	111.0000
41.4440	99.0000
41.4532	107.0000
41.4624	109.0000
41.4717	107.0000
41.4809	109.0000
41.4901	101.0000
41.4993	113.0000
41.5085	117.0000
41.5178	109.0000
41.5270	102.0000
41.5362	99.0000
41.5454	96.0000
41.5547	93.0000
41.5639	92.0000
41.5731	131.0000
41.5823	119.0000
41.5915	104.0000
41.6008	106.0000
41.6100	106.0000
41.6192	120.0000
41.6284	113.0000
41.6377	101.0000
41.6469	100.0000
41.6561	115.0000
41.6653	102.0000
41.6746	93.0000
41.6838	84.0000
41.6930	126.0000
41.7022	100.0000
41.7114	104.0000
41.7207	95.0000
41.7299	112.0000
41.7391	123.0000
41.7483	84.0000
41.7576	104.0000
41.7668	112.0000
41.7760	109.0000
41.7852	134.0000
41.7944	115.0000
41.8037	88.0000
41.8129	107.0000
41.8221	120.0000
41.8313	132.0000
41.8406	101.0000
41.8498	107.0000
41.8590	104.0000
41.8682	113.0000
41.8775	93.0000
41.8867	97.0000
41.8959	103.0000
41.9051	102.0000
41.9143	119.0000
41.9236	103.0000
41.9328	98.0000
41.9420	102.0000
41.9512	105.0000
41.9605	104.0000
41.9697	93.0000
41.9789	93.0000
41.9881	97.0000
41.9973	110.0000
42.0066	100.0000
42.0158	109.0000
42.0250	102.0000
42.0342	111.0000
42.0435	109.0000
42.0527	108.0000
42.0619	101.0000
42.0711	132.0000
42.0804	98.0000
42.0896	101.0000
42.0988	110.0000
42.1080	107.0000
42.1172	112.0000
42.1265	103.0000
42.1357	111.0000
42.1449	103.0000
42.1541	111.0000
42.1634	117.0000
42.1726	116.0000
42.1818	100.0000
42.1910	113.0000
42.2002	93.0000
42.2095	109.0000
42.2187	94.0000
42.2279	97.0000
42.2371	97.0000
42.2464	104.0000
42.2556	96.0000
42.2648	100.0000
42.2740	104.0000
42.2832	101.0000
42.2925	104.0000
42.3017	118.0000
42.3109	96.0000
42.3201	94.0000
42.3294	102.0000
42.3386	105.0000
42.3478	95.0000
42.3570	100.0000
42.3663	86.0000
42.3755	98.0000
42.3847	102.0000
42.3939	96.0000
42.4031	97.0000
42.4124	103.0000
42.4216	97.0000
42.4308	109.0000
42.4400	91.0000
42.4493	127.0000
42.4585	123.0000
42.4677	117.0000
42.4769	80.0000
42.4861	107.0000
42.4954	104.0000
42.5046	119.0000
42.5138	120.0000
42.5230	124.0000
42.5323	104.0000
42.5415	119.0000
42.5507	96.0000
42.5599	110.0000
42.5692	115.0000
42.5784	95.0000
42.5876	106.0000
42.5968	102.0000
42.6060	101.0000
42.6153	111.0000
42.6245	102.0000
42.6337	107.0000
42.6429	124.0000
42.6522	90.0000
42.6614	95.0000
42.6706	109.0000
42.6798	107.0000
42.6890	107.0000
42.6983	95.0000
42.7075	101.0000
42.7167	95.0000
42.7259	93.0000
42.7352	94.0000
42.7444	113.0000
42.7536	101.0000
42.7628	94.0000
42.7720	110.0000
42.7813	127.0000
42.7905	109.0000
42.7997	126.0000
42.8089	97.0000
42.8182	110.0000
42.8274	87.0000
42.8366	112.0000
42.8458	110.0000
42.8551	106.0000
42.8643	102.0000
42.8735	108.0000
42.8827	112.0000
42.8919	99.0000
42.9012	97.0000
42.9104	116.0000
42.9196	103.0000
42.9288	102.0000
42.9381	79.0000
42.9473	96.0000
42.9565	119.0000
42.9657	112.0000
42.9749	105.0000
42.9842	112.0000
42.9934	113.0000
43.0026	104.0000
43.0118	97.0000
43.0211	115.0000
43.0303	87.0000
43.0395	104.0000
43.0487	99.0000
43.0580	108.0000
43.0672	112.0000
43.0764	104.0000
43.0856	103.0000
43.0948	88.0000
43.1041	111.0000
43.1133	91.0000
43.1225	105.0000
43.1317	112.0000
43.1410	103.0000
43.1502	115.0000
43.1594	119.0000
43.1686	92.0000
43.1778	91.0000
43.1871	96.0000
43.1963	106.0000
43.2055	98.0000
43.2147	90.0000
43.2240	101.0000
43.2332	100.0000
43.2424	88.0000
43.2516	88.0000
43.2609	103.0000
43.2701	103.0000
43.2793	113.0000
43.2885	98.0000
43.2977	94.0000
43.3070	93.0000
43.3162	95.0000
43.3254	118.0000
43.3346	114.0000
43.3439	105.0000
43.3531	101.0000
43.3623	106.0000
43.3715	104.0000
43.3807	81.0000
43.3900	96.0000
43.3992	116.0000
43.4084	79.0000
43.4176	101.0000
43.4269	97.0000
43.4361	119.0000
43.4453	89.0000
43.4545	113.0000
43.4637	109.0000
43.4730	87.0000
43.4822	106.0000
43.4914	108.0000
43.5006	98.0000
43.5099	86.0000
43.5191	93.0000
43.5283	104.0000
43.5375	120.0000
43.5468	93.0000
43.5560	92.0000
43.5652	118.0000
43.5744	111.0000
43.5836	89.0000
43.5929	108.0000
43.6021	105.0000
43.6113	109.0000
43.6205	105.0000
43.6298	119.0000
43.6390	89.0000
43.6482	96.0000
43.6574	109.0000
43.6666	103.0000
43.6759	71.0000
43.6851	101.0000
43.6943	96.0000
43.7035	86.0000
43.7128	97.0000
43.7220	97.0000
43.7312	91.0000
43.7404	89.0000
43.7497	96.0000
43.7589	95.0000
43.7681	99.0000
43.7773	96.0000
43.7865	98.0000
43.7958	118.0000
43.8050	111.0000
43.8142	91.0000
43.8234	102.0000
43.8327	91.0000
43.8419	103.0000
43.8511	113.0000
43.8603	107.0000
43.8695	112.0000
43.8788	87.0000
43.8880	89.0000
43.8972	87.0000
43.9064	111.0000
43.9157	80.0000
43.9249	93.0000
43.9341	84.0000
43.9433	93.0000
43.9525	110.0000
43.9618	89.0000
43.9710	100.0000
43.9802	97.0000
43.9894	97.0000
43.9987	103.0000
44.0079	91.0000
44.0171	109.0000
44.0263	106.0000
44.0356	109.0000
44.0448	103.0000
44.0540	87.0000
44.0632	96.0000
44.0724	86.0000
44.0817	93.0000
44.0909	100.0000
44.1001	102.0000
44.1093	96.0000
44.1186	96.0000
44.1278	102.0000
44.1370	108.0000
44.1462	82.0000
44.1554	97.0000
44.1647	99.0000
44.1739	95.0000
44.1831	92.0000
44.1923	91.0000
44.2016	93.0000
44.2108	105.0000
44.2200	104.0000
44.2292	105.0000
44.2385	102.0000
44.2477	93.0000
44.2569	104.0000
44.2661	102.0000
44.2753	105.0000
44.2846	76.0000
44.2938	105.0000
44.3030	84.0000
44.3122	101.0000
44.3215	97.0000
44.3307	93.0000
44.3399	102.0000
44.3491	93.0000
44.3583	78.0000
44.3676	95.0000
44.3768	85.0000
44.3860	109.0000
44.3952	91.0000
44.4045	94.0000
44.4137	98.0000
44.4229	105.0000
44.4321	96.0000
44.4414	88.0000
44.4506	114.0000
44.4598	104.0000
44.4690	102.0000
44.4782	104.0000
44.4875	96.0000
44.4967	94.0000
44.5059	90.0000
44.5151	105.0000
44.5244	102.0000
44.5336	93.0000
44.5428	95.0000
44.5520	124.0000
44.5612	92.0000
44.5705	90.0000
44.5797	91.0000
44.5889	87.0000
44.5981	115.0000
44.6074	104.0000
44.6166	94.0000
44.6258	102.0000
44.6350	103.0000
44.6442	84.0000
44.6535	100.0000
44.6627	84.0000
44.6719	95.0000
44.6811	99.0000
44.6904	99.0000
44.6996	112.0000
44.7088	98.0000
44.7180	94.0000
44.7273	99.0000
44.7365	111.0000
44.7457	81.0000
44.7549	100.0000
44.7641	109.0000
44.7734	95.0000
44.7826	103.0000
44.7918	88.0000
44.8010	97.0000
44.8103	93.0000
44.8195	106.0000
44.8287	108.0000
44.8379	81.0000
44.8471	104.0000
44.8564	100.0000
44.8656	95.0000
44.8748	92.0000
44.8840	102.0000
44.8933	103.0000
44.9025	84.0000
44.9117	97.0000
44.9209	112.0000
44.9302	93.0000
44.9394	87.0000
44.9486	102.0000
44.9578	89.0000
44.9670	102.0000
44.9763	99.0000
44.9855	113.0000
44.9947	93.0000
45.0039	96.0000
45.0132	99.0000
45.0224	97.0000
45.0316	76.0000
45.0408	107.0000
45.0500	95.0000
45.0593	105.0000
45.0685	85.0000
45.0777	102.0000
45.0869	96.0000
45.0962	91.0000
45.1054	105.0000
45.1146	100.0000
45.1238	100.0000
45.1330	85.0000
45.1423	78.0000
45.1515	108.0000
45.1607	95.0000
45.1699	97.0000
45.1792	87.0000
45.1884	99.0000
45.1976	89.0000
45.2068	75.0000
45.2161	94.0000
45.2253	100.0000
45.2345	101.0000
45.2437	89.0000
45.2529	102.0000
45.2622	92.0000
45.2714	103.0000
45.2806	87.0000
45.2898	89.0000
45.2991	91.0000
45.3083	102.0000
45.3175	80.0000
45.3267	100.0000
45.3359	93.0000
45.3452	108.0000
45.3544	92.0000
45.3636	85.0000
45.3728	95.0000
45.3821	114.0000
45.3913	99.0000
45.4005	98.0000
45.4097	96.0000
45.4190	97.0000
45.4282	109.0000
45.4374	97.0000
45.4466	97.0000
45.4558	115.0000
45.4651	112.0000
45.4743	110.0000
45.4835	99.0000
45.4927	106.0000
45.5020	108.0000
45.5112	103.0000
45.5204	86.0000
45.5296	106.0000
45.5388	91.0000
45.5481	102.0000
45.5573	86.0000
45.5665	85.0000
45.5757	88.0000
45.5850	92.0000
45.5942	88.0000
45.6034	85.0000
45.6126	89.0000
45.6219	96.0000
45.6311	102.0000
45.6403	99.0000
45.6495	80.0000
45.6587	104.0000
45.6680	89.0000
45.6772	102.0000
45.6864	88.0000
45.6956	90.0000
45.7049	81.0000
45.7141	90.0000
45.7233	97.0000
45.7325	110.0000
45.7417	80.0000
45.7510	97.0000
45.7602	93.0000
45.7694	101.0000
45.7786	96.0000
45.7879	110.0000
45.7971	92.0000
45.8063	87.0000
45.8155	91.0000
45.8247	73.0000
45.8340	76.0000
45.8432	97.0000
45.8524	103.0000
45.8616	90.0000
45.8709	89.0000
45.8801	106.0000
45.8893	78.0000
45.8985	78.0000
45.9078	81.0000
45.9170	79.0000
45.9262	98.0000
45.9354	102.0000
45.9446	88.0000
45.9539	95.0000
45.9631	74.0000
45.9723	89.0000
45.9815	86.0000
45.9908	81.0000
46.0000	83.0000
46.0092	91.0000
46.0184	94.0000
46.0276	92.0000
46.0369	86.0000
46.0461	82.0000
46.0553	102.0000
46.0645	99.0000
46.0738	83.0000
46.0830	107.0000
46.0922	82.0000
46.1014	75.0000
46.1107	96.0000
46.1199	96.0000
46.1291	82.0000
46.1383	94.0000
46.1475	71.0000
46.1568	84.0000
46.1660	86.0000
46.1752	88.0000
46.1844	90.0000
46.1937	95.0000
46.2029	82.0000
46.2121	108.0000
46.2213	110.0000
46.2305	73.0000
46.2398	72.0000
46.2490	92.0000
46.2582	87.0000
46.2674	89.0000
46.2767	84.0000
46.2859	98.0000
46.2951	103.0000
46.3043	79.0000
46.3135	89.0000
46.3228	73.0000
46.3320	92.0000
46.3412	92.0000
46.3504	91.0000
46.3597	73.0000
46.3689	94.0000
46.3781	81.0000
46.3873	89.0000
46.3966	87.0000
46.4058	84.0000
46.4150	86.0000
46.4242	82.0000
46.4334	89.0000
46.4427	84.0000
46.4519	111.0000
46.4611	87.0000
46.4703	97.0000
46.4796	93.0000
46.4888	101.0000
46.4980	100.0000
46.5072	93.0000
46.5164	93.0000
46.5257	83.0000
46.5349	95.0000
46.5441	78.0000
46.5533	87.0000
46.5626	80.0000
46.5718	96.0000
46.5810	84.0000
46.5902	89.0000
46.5995	77.0000
46.6087	104.0000
46.6179	89.0000
46.6271	78.0000
46.6363	86.0000
46.6456	90.0000
46.6548	86.0000
46.6640	81.0000
46.6732	102.0000
46.6825	96.0000
46.6917	100.0000
46.7009	88.0000
46.7101	85.0000
46.7193	91.0000
46.7286	83.0000
46.7378	81.0000
46.7470	97.0000
46.7562	89.0000
46.7655	81.0000
46.7747	99.0000
46.7839	86.0000
46.7931	80.0000
46.8024	77.0000
46.8116	85.0000
46.8208	90.0000
46.8300	89.0000
46.8392	101.0000
46.8485	75.0000
46.8577	75.0000
46.8669	83.0000
46.8761	87.0000
46.8854	70.0000
46.8946	89.0000
46.9038	99.0000
46.9130	76.0000
46.9222	102.0000
46.9315	89.0000
46.9407	75.0000
46.9499	78.0000
46.9591	84.0000
46.9684	94.0000
46.9776	100.0000
46.9868	87.0000
46.9960	82.0000
47.0052	94.0000
47.0145	79.0000
47.0237	92.0000
47.0329	78.0000
47.0421	75.0000
47.0514	86.0000
47.0606	88.0000
47.0698	82.0000
47.0790	91.0000
47.0883	90.0000
47.0975	85.0000
47.1067	82.0000
47.1159	94.0000
47.1251	84.0000
47.1344	81.0000
47.1436	75.0000
47.1528	81.0000
47.1620	81.0000
47.1713	69.0000
47.1805	85.0000
47.1897	77.0000
47.1989	82.0000
47.2081	91.0000
47.2174	88.0000
47.2266	92.0000
47.2358	91.0000
47.2450	72.0000
47.2543	95.0000
47.2635	71.0000
47.2727	79.0000
47.2819	82.0000
47.2912	85.0000
47.3004	93.0000
47.3096	71.0000
47.3188	79.0000
47.3280	79.0000
47.3373	89.0000
47.3465	70.0000
47.3557	93.0000
47.3649	84.0000
47.3742	88.0000
47.3834	77.0000
47.3926	87.0000
47.4018	90.0000
47.4110	84.0000
47.4203	88.0000
47.4295	83.0000
47.4387	83.0000
47.4479	92.0000
47.4572	85.0000
47.4664	73.0000
47.4756	87.0000
47.4848	73.0000
47.4940	63.0000
47.5033	112.0000
47.5125	85.0000
47.5217	72.0000
47.5309	73.0000
47.5402	76.0000
47.5494	68.0000
47.5586	72.0000
47.5678	70.0000
47.5771	78.0000
47.5863	97.0000
47.5955	81.0000
47.6047	83.0000
47.6139	76.0000
47.6232	83.0000
47.6324	76.0000
47.6416	94.0000
47.6508	76.0000
47.6601	75.0000
47.6693	91.0000
47.6785	80.0000
47.6877	91.0000
47.6969	94.0000
47.7062	93.0000
47.7154	87.0000
47.7246	83.0000
47.7338	76.0000
47.7431	89.0000
47.7523	89.0000
47.7615	105.0000
47.7707	74.0000
47.7800	90.0000
47.7892	80.0000
47.7984	86.0000
47.8076	79.0000
47.8168	81.0000
47.8261	90.0000
47.8353	63.0000
47.8445	93.0000
47.8537	72.0000
47.8630	82.0000
47.8722	77.0000
47.8814	81.0000
47.8906	73.0000
47.8998	55.0000
47.9091	82.0000
47.9183	87.0000
47.9275	84.0000
47.9367	90.0000
47.9460	83.0000
47.9552	73.0000
47.9644	84.0000
47.9736	69.0000
47.9829	71.0000
47.9921	85.0000
48.0013	79.0000
