11.0000	599.0000
11.0092	553.0000
11.0184	610.0000
11.0277	603.0000
11.0369	612.0000
11.0461	610.0000
11.0553	559.0000
11.0646	591.0000
11.0738	583.0000
11.0830	594.0000
11.0922	583.0000
11.1014	585.0000
11.1107	560.0000
11.1199	601.0000
11.1291	564.0000
11.1383	599.0000
11.1476	570.0000
11.1568	574.0000
11.1660	583.0000
11.1752	557.0000
11.1845	602.0000
11.1937	568.0000
11.2029	586.0000
11.2121	593.0000
11.2213	574.0000
11.2306	540.0000
11.2398	568.0000
11.2490	576.0000
11.2582	547.0000
11.2675	571.0000
11.2767	533.0000
11.2859	516.0000
11.2951	557.0000
11.3043	562.0000
11.3136	612.0000
11.3228	586.0000
11.3320	528.0000
11.3412	534.0000
11.3505	538.0000
11.3597	555.0000
11.3689	517.0000
11.3781	538.0000
11.3874	501.0000
11.3966	531.0000
11.4058	516.0000
11.4150	499.0000
11.4242	519.0000
11.4335	536.0000
11.4427	511.0000
11.4519	554.0000
11.4611	522.0000
11.4704	576.0000
11.4796	522.0000
11.4888	563.0000
11.4980	526.0000
11.5072	504.0000
11.5165	490.0000
11.5257	557.0000
11.5349	527.0000
11.5441	506.0000
11.5534	550.0000
11.5626	532.0000
11.5718	480.0000
11.5810	535.0000
11.5902	524.0000
11.5995	509.0000
11.6087	510.0000
11.6179	508.0000
11.6271	473.0000
11.6364	486.0000
11.6456	458.0000
11.6548	540.0000
11.6640	514.0000
11.6733	485.0000
11.6825	476.0000
11.6917	472.0000
11.7009	492.0000
11.7101	491.0000
11.7194	516.0000
11.7286	483.0000
11.7378	481.0000
11.7470	464.0000
11.7563	463.0000
11.7655	473.0000
11.7747	474.0000
11.7839	483.0000
11.7931	524.0000
11.8024	493.0000
11.8116	468.0000
11.8208	475.0000
11.8300	476.0000
11.8393	434.0000
11.8485	460.0000
11.8577	468.0000
11.8669	501.0000
11.8762	477.0000
11.8854	464.0000
11.8946	456.0000
11.9038	482.0000
11.9130	475.0000
11.9223	464.0000
11.9315	428.0000
11.9407	444.0000
11.9499	486.0000
11.9592	419.0000
11.9684	440.0000
11.9776	443.0000
11.9868	466.0000
11.9960	452.0000
12.0053	435.0000
12.0145	441.0000
12.0237	439.0000
12.0329	430.0000
12.0422	453.0000
12.0514	481.0000
12.0606	419.0000
12.0698	415.0000
12.0791	419.0000
12.0883	481.0000
12.0975	440.0000
12.1067	456.0000
12.1159	452.0000
12.1252	418.0000
12.1344	440.0000
12.1436	381.0000
12.1528	424.0000
12.1621	416.0000
12.1713	416.0000
12.1805	429.0000
12.1897	418.0000
12.1989	389.0000
12.2082	419.0000
12.2174	471.0000
12.2266	404.0000
12.2358	387.0000
12.2451	416.0000
12.2543	440.0000
12.2635	446.0000
12.2727	426.0000
12.2819	431.0000
12.2912	416.0000
12.3004	462.0000
12.3096	409.0000
12.3188	382.0000
12.3281	399.0000
12.3373	441.0000
12.3465	380.0000
12.3557	399.0000
12.3650	393.0000
12.3742	377.0000
12.3834	442.0000
12.3926	385.0000
12.4018	407.0000
12.4111	409.0000
12.4203	408.0000
12.4295	400.0000
12.4387	397.0000
12.4480	382.0000
12.4572	413.0000
12.4664	376.0000
12.4756	379.0000
12.4848	390.0000
12.4941	376.0000
12.5033	365.0000
12.5125	375.0000
12.5217	393.0000
12.5310	381.0000
12.5402	409.0000
12.5494	347.0000
12.5586	368.0000
12.5679	397.0000
12.5771	427.0000
12.5863	372.0000
12.5955	382.0000
12.6047	390.0000
12.6140	345.0000
12.6232	380.0000
12.6324	410.0000
12.6416	398.0000
12.6509	413.0000
12.6601	405.0000
12.6693	359.0000
12.6785	380.0000
12.6877	400.0000
12.6970	349.0000
12.7062	341.0000
12.7154	381.0000
12.7246	372.0000
12.7339	366.0000
12.7431	375.0000
12.7523	382.0000
12.7615	357.0000
12.7707	374.0000
12.7800	344.0000
12.7892	401.0000
12.7984	337.0000
12.8076	358.0000
12.8169	369.0000
12.8261	356.0000
12.8353	388.0000
12.8445	379.0000
12.8538	395.0000
12.8630	377.0000
12.8722	345.0000
12.8814	340.0000
12.8906	374.0000
12.8999	354.0000
12.9091	358.0000
12.9183	376.0000
12.9275	345.0000
12.9368	339.0000
12.9460	340.0000
12.9552	317.0000
12.9644	373.0000
12.9736	348.0000
12.9829	346.0000
12.9921	336.0000
13.0013	356.0000
13.0105	328.0000
13.0198	345.0000
13.0290	323.0000
13.0382	364.0000
13.0474	329.0000
13.0567	337.0000
13.0659	353.0000
13.0751	386.0000
13.0843	343.0000
13.0935	346.0000
13.1028	334.0000
13.1120	361.0000
13.1212	346.0000
13.1304	338.0000
13.1397	352.0000
13.1489	338.0000
13.1581	351.0000
13.1673	334.0000
13.1765	329.0000
13.1858	333.0000
13.1950	313.0000
13.2042	313.0000
13.2134	325.0000
13.2227	353.0000
13.2319	339.0000
13.2411	306.0000
13.2503	320.0000
13.2596	325.0000
13.2688	342.0000
13.2780	330.0000
13.2872	339.0000
13.2964	342.0000
13.3057	313.0000
13.3149	329.0000
13.3241	306.0000
13.3333	331.0000
13.3426	343.0000
13.3518	339.0000
13.3610	367.0000
13.3702	319.0000
13.3794	327.0000
13.3887	332.0000
13.3979	332.0000
13.4071	287.0000
13.4163	290.0000
13.4256	327.0000
13.4348	323.0000
13.4440	301.0000
13.4532	330.0000
13.4624	325.0000
13.4717	337.0000
13.4809	327.0000
13.4901	315.0000
13.4993	339.0000
13.5086	334.0000
13.5178	272.0000
13.5270	322.0000
13.5362	326.0000
13.5455	306.0000
13.5547	307.0000
13.5639	310.0000
13.5731	283.0000
13.5823	284.0000
13.5916	290.0000
13.6008	318.0000
13.6100	283.0000
13.6192	306.0000
13.6285	314.0000
13.6377	297.0000
13.6469	293.0000
13.6561	316.0000
13.6653	291.0000
13.6746	313.0000
13.6838	275.0000
13.6930	284.0000
13.7022	307.0000
13.7115	336.0000
13.7207	292.0000
13.7299	298.0000
13.7391	283.0000
13.7484	313.0000
13.7576	277.0000
13.7668	293.0000
13.7760	285.0000
13.7852	306.0000
13.7945	281.0000
13.8037	305.0000
13.8129	299.0000
13.8221	293.0000
13.8314	305.0000
13.8406	281.0000
13.8498	282.0000
13.8590	300.0000
13.8682	304.0000
13.8775	285.0000
13.8867	286.0000
13.8959	294.0000
13.9051	276.0000
13.9144	277.0000
13.9236	311.0000
13.9328	289.0000
13.9420	291.0000
13.9512	300.0000
13.9605	297.0000
13.9697	250.0000
13.9789	285.0000
13.9881	289.0000
13.9974	290.0000
14.0066	291.0000
14.0158	285.0000
14.0250	268.0000
14.0343	258.0000
14.0435	261.0000
14.0527	272.0000
14.0619	257.0000
14.0711	284.0000
14.0804	266.0000
14.0896	273.0000
14.0988	295.0000
14.1080	253.0000
14.1173	253.0000
14.1265	295.0000
14.1357	280.0000
14.1449	274.0000
14.1541	314.0000
14.1634	267.0000
14.1726	294.0000
14.1818	278.0000
14.1910	263.0000
14.2003	261.0000
14.2095	263.0000
14.2187	282.0000
14.2279	243.0000
14.2372	288.0000
14.2464	254.0000
14.2556	273.0000
14.2648	251.0000
14.2740	267.0000
14.2833	287.0000
14.2925	271.0000
14.3017	301.0000
14.3109	293.0000
14.3202	266.0000
14.3294	261.0000
14.3386	285.0000
14.3478	262.0000
14.3570	283.0000
14.3663	302.0000
14.3755	296.0000
14.3847	267.0000
14.3939	265.0000
14.4032	273.0000
14.4124	257.0000
14.4216	252.0000
14.4308	265.0000
14.4401	235.0000
14.4493	281.0000
14.4585	245.0000
14.4677	276.0000
14.4769	247.0000
14.4862	287.0000
14.4954	257.0000
14.5046	258.0000
14.5138	260.0000
14.5231	284.0000
14.5323	271.0000
14.5415	224.0000
14.5507	251.0000
14.5599	263.0000
14.5692	263.0000
14.5784	242.0000
14.5876	269.0000
14.5968	254.0000
14.6061	258.0000
14.6153	266.0000
14.6245	269.0000
14.6337	263.0000
14.6429	269.0000
14.6522	256.0000
14.6614	284.0000
14.6706	258.0000
14.6798	248.0000
14.6891	270.0000
14.6983	272.0000
14.7075	231.0000
14.7167	235.0000
14.7260	252.0000
14.7352	288.0000
14.7444	296.0000
14.7536	243.0000
14.7628	282.0000
14.7721	242.0000
14.7813	271.0000
14.7905	250.0000
14.7997	280.0000
14.8090	251.0000
14.8182	258.0000
14.8274	239.0000
14.8366	247.0000
14.8458	251.0000
14.8551	268.0000
14.8643	248.0000
14.8735	260.0000
14.8827	247.0000
14.8920	270.0000
14.9012	286.0000
14.9104	275.0000
14.9196	257.0000
14.9289	271.0000
14.9381	265.0000
14.9473	271.0000
14.9565	223.0000
14.9657	239.0000
14.9750	223.0000
14.9842	230.0000
14.9934	260.0000
15.0026	253.0000
15.0119	256.0000
15.0211	213.0000
15.0303	235.0000
15.0395	236.0000
15.0487	243.0000
15.0580	245.0000
15.0672	238.0000
15.0764	233.0000
15.0856	237.0000
15.0949	258.0000
15.1041	287.0000
15.1133	267.0000
15.1225	237.0000
15.1317	236.0000
15.1410	230.0000
15.1502	222.0000
15.1594	246.0000
15.1686	243.0000
15.1779	246.0000
15.1871	256.0000
15.1963	243.0000
15.2055	253.0000
15.2148	227.0000
15.2240	247.0000
15.2332	246.0000
15.2424	267.0000
15.2516	237.0000
15.2609	279.0000
15.2701	276.0000
15.2793	222.0000
15.2885	253.0000
15.2978	263.0000
15.3070	231.0000
15.3162	255.0000
15.3254	232.0000
15.3346	223.0000
15.3439	255.0000
15.3531	224.0000
15.3623	253.0000
15.3715	240.0000
15.3808	245.0000
15.3900	260.0000
15.3992	211.0000
15.4084	230.0000
15.4177	238.0000
15.4269	218.0000
15.4361	228.0000
15.4453	237.0000
15.4545	265.0000
15.4638	220.0000
15.4730	226.0000
15.4822	200.0000
15.4914	219.0000
15.5007	217.0000
15.5099	245.0000
15.5191	248.0000
15.5283	238.0000
15.5375	240.0000
15.5468	251.0000
15.5560	268.0000
15.5652	225.0000
15.5744	247.0000
15.5837	259.0000
15.5929	231.0000
15.6021	256.0000
15.6113	231.0000
15.6206	222.0000
15.6298	234.0000
15.6390	253.0000
15.6482	235.0000
15.6574	214.0000
15.6667	240.0000
15.6759	235.0000
15.6851	222.0000
15.6943	235.0000
15.7036	238.0000
15.7128	266.0000
15.7220	240.0000
15.7312	225.0000
15.7404	226.0000
15.7497	222.0000
15.7589	235.0000
15.7681	226.0000
15.7773	244.0000
15.7866	239.0000
15.7958	251.0000
15.8050	236.0000
15.8142	218.0000
15.8234	203.0000
15.8327	226.0000
15.8419	248.0000
15.8511	242.0000
15.8603	247.0000
15.8696	214.0000
15.8788	214.0000
15.8880	225.0000
15.8972	198.0000
15.9065	245.0000
15.9157	217.0000
15.9249	183.0000
15.9341	211.0000
15.9433	215.0000
15.9526	248.0000
15.9618	259.0000
15.9710	225.0000
15.9802	226.0000
15.9895	234.0000
15.9987	211.0000
16.0079	196.0000
16.0171	247.0000
16.0263	207.0000
16.0356	212.0000
16.0448	209.0000
16.0540	205.0000
16.0632	216.0000
16.0725	223.0000
16.0817	210.0000
16.0909	232.0000
16.1001	219.0000
16.1094	217.0000
16.1186	220.0000
16.1278	242.0000
16.1370	203.0000
16.1462	224.0000
16.1555	224.0000
16.1647	241.0000
16.1739	217.0000
16.1831	218.0000
16.1924	225.0000
16.2016	187.0000
16.2108	209.0000
16.2200	208.0000
16.2292	204.0000
16.2385	241.0000
16.2477	209.0000
16.2569	192.0000
16.2661	180.0000
16.2754	219.0000
16.2846	213.0000
16.2938	220.0000
16.3030	215.0000
16.3122	193.0000
16.3215	238.0000
16.3307	203.0000
16.3399	194.0000
16.3491	213.0000
16.3584	225.0000
16.3676	223.0000
16.3768	220.0000
16.3860	195.0000
16.3953	219.0000
16.4045	193.0000
16.4137	209.0000
16.4229	219.0000
16.4321	209.0000
16.4414	194.0000
16.4506	185.0000
16.4598	195.0000
16.4690	218.0000
16.4783	222.0000
16.4875	197.0000
16.4967	211.0000
16.5059	235.0000
16.5151	182.0000
16.5244	199.0000
16.5336	208.0000
16.5428	225.0000
16.5520	208.0000
16.5613	209.0000
16.5705	189.0000
16.5797	209.0000
16.5889	200.0000
16.5982	205.0000
16.6074	214.0000
16.6166	176.0000
16.6258	207.0000
16.6350	209.0000
16.6443	185.0000
16.6535	207.0000
16.6627	201.0000
16.6719	203.0000
16.6812	206.0000
16.6904	203.0000
16.6996	188.0000
16.7088	222.0000
16.7180	203.0000
16.7273	214.0000
16.7365	192.0000
16.7457	207.0000
16.7549	185.0000
16.7642	195.0000
16.7734	189.0000
16.7826	164.0000
16.7918	212.0000
16.8011	194.0000
16.8103	175.0000
16.8195	207.0000
16.8287	214.0000
16.8379	192.0000
16.8472	182.0000
16.8564	225.0000
16.8656	199.0000
16.8748	197.0000
16.8841	203.0000
16.8933	184.0000
16.9025	205.0000
16.9117	212.0000
16.9209	207.0000
16.9302	195.0000
16.9394	196.0000
16.9486	204.0000
16.9578	193.0000
16.9671	184.0000
16.9763	199.0000
16.9855	200.0000
16.9947	223.0000
17.0039	175.0000
17.0132	173.0000
17.0224	188.0000
17.0316	196.0000
17.0408	176.0000
17.0501	191.0000
17.0593	211.0000
17.0685	213.0000
17.0777	203.0000
17.0870	193.0000
17.0962	181.0000
17.1054	172.0000
17.1146	190.0000
17.1238	173.0000
17.1331	190.0000
17.1423	205.0000
17.1515	212.0000
17.1607	188.0000
17.1700	208.0000
17.1792	194.0000
17.1884	179.0000
17.1976	180.0000
17.2068	179.0000
17.2161	187.0000
17.2253	193.0000
17.2345	175.0000
17.2437	180.0000
17.2530	196.0000
17.2622	168.0000
17.2714	191.0000
17.2806	172.0000
17.2899	181.0000
17.2991	186.0000
17.3083	193.0000
17.3175	184.0000
17.3267	206.0000
17.3360	176.0000
17.3452	188.0000
17.3544	181.0000
17.3636	185.0000
17.3729	177.0000
17.3821	206.0000
17.3913	207.0000
17.4005	170.0000
17.4097	182.0000
17.4190	209.0000
17.4282	175.0000
17.4374	170.0000
17.4466	193.0000
17.4559	175.0000
17.4651	185.0000
17.4743	167.0000
17.4835	168.0000
17.4927	168.0000
17.5020	169.0000
17.5112	208.0000
17.5204	182.0000
17.5296	190.0000
17.5389	157.0000
17.5481	180.0000
17.5573	158.0000
17.5665	163.0000
17.5758	186.0000
17.5850	163.0000
17.5942	169.0000
17.6034	170.0000
17.6126	184.0000
17.6219	165.0000
17.6311	188.0000
17.6403	182.0000
17.6495	179.0000
17.6588	167.0000
17.6680	188.0000
17.6772	190.0000
17.6864	185.0000
17.6956	185.0000
17.7049	157.0000
17.7141	166.0000
17.7233	180.0000
17.7325	179.0000
17.7418	191.0000
17.7510	179.0000
17.7602	162.0000
17.7694	146.0000
17.7787	171.0000
17.7879	188.0000
17.7971	151.0000
17.8063	186.0000
17.8155	172.0000
17.8248	162.0000
17.8340	169.0000
17.8432	163.0000
17.8524	157.0000
17.8617	159.0000
17.8709	192.0000
17.8801	170.0000
17.8893	173.0000
17.8985	170.0000
17.9078	188.0000
17.9170	160.0000
17.9262	185.0000
17.9354	183.0000
17.9447	154.0000
17.9539	172.0000
17.9631	158.0000
17.9723	166.0000
17.9816	203.0000
17.9908	167.0000
18.0000	166.0000
18.0092	152.0000
18.0184	173.0000
18.0277	176.0000
18.0369	162.0000
18.0461	174.0000
18.0553	168.0000
18.0646	169.0000
18.0738	159.0000
18.0830	129.0000
18.0922	147.0000
18.1014	175.0000
18.1107	153.0000
18.1199	164.0000
18.1291	162.0000
18.1383	175.0000
18.1476	161.0000
18.1568	167.0000
18.1660	145.0000
18.1752	157.0000
18.1844	191.0000
18.1937	160.0000
18.2029	169.0000
18.2121	165.0000
18.2213	179.0000
18.2306	165.0000
18.2398	174.0000
18.2490	129.0000
18.2582	148.0000
18.2675	157.0000
18.2767	151.0000
18.2859	166.0000
18.2951	186.0000
18.3043	158.0000
18.3136	168.0000
18.3228	144.0000
18.3320	157.0000
18.3412	167.0000
18.3505	171.0000
18.3597	179.0000
18.3689	170.0000
18.3781	169.0000
18.3873	154.0000
18.3966	144.0000
18.4058	163.0000
18.4150	184.0000
18.4242	183.0000
18.4335	135.0000
18.4427	156.0000
18.4519	171.0000
18.4611	172.0000
18.4704	170.0000
18.4796	163.0000
18.4888	170.0000
18.4980	145.0000
18.5072	159.0000
18.5165	147.0000
18.5257	185.0000
18.5349	169.0000
18.5441	205.0000
18.5534	187.0000
18.5626	166.0000
18.5718	159.0000
18.5810	192.0000
18.5902	180.0000
18.5995	207.0000
18.6087	176.0000
18.6179	166.0000
18.6271	174.0000
18.6364	172.0000
18.6456	173.0000
18.6548	160.0000
18.6640	171.0000
18.6732	168.0000
18.6825	166.0000
18.6917	144.0000
18.7009	176.0000
18.7101	167.0000
18.7194	171.0000
18.7286	181.0000
18.7378	155.0000
18.7470	161.0000
18.7563	164.0000
18.7655	162.0000
18.7747	175.0000
18.7839	159.0000
18.7931	177.0000
18.8024	170.0000
18.8116	175.0000
18.8208	175.0000
18.8300	141.0000
18.8393	214.0000
18.8485	165.0000
18.8577	148.0000
18.8669	152.0000
18.8761	170.0000
18.8854	154.0000
18.8946	165.0000
18.9038	167.0000
18.9130	179.0000
18.9223	181.0000
18.9315	176.0000
18.9407	161.0000
18.9499	156.0000
18.9592	166.0000
18.9684	166.0000
18.9776	157.0000
18.9868	172.0000
18.9960	152.0000
19.0053	165.0000
19.0145	158.0000
19.0237	157.0000
19.0329	173.0000
19.0422	154.0000
19.0514	195.0000
19.0606	174.0000
19.0698	175.0000
19.0790	152.0000
19.0883	183.0000
19.0975	165.0000
19.1067	156.0000
19.1159	162.0000
19.1252	159.0000
19.1344	179.0000
19.1436	184.0000
19.1528	159.0000
19.1621	154.0000
19.1713	154.0000
19.1805	178.0000
19.1897	153.0000
19.1989	147.0000
19.2082	159.0000
19.2174	160.0000
19.2266	180.0000
19.2358	150.0000
19.2451	204.0000
19.2543	163.0000
19.2635	165.0000
19.2727	152.0000
19.2819	167.0000
19.2912	179.0000
19.3004	170.0000
19.3096	188.0000
19.3188	144.0000
19.3281	178.0000
19.3373	166.0000
19.3465	161.0000
19.3557	159.0000
19.3649	154.0000
19.3742	199.0000
19.3834	163.0000
19.3926	179.0000
19.4018	164.0000
19.4111	159.0000
19.4203	184.0000
19.4295	177.0000
19.4387	173.0000
19.4480	168.0000
19.4572	193.0000
19.4664	160.0000
19.4756	175.0000
19.4848	182.0000
19.4941	174.0000
19.5033	167.0000
19.5125	165.0000
19.5217	168.0000
19.5310	162.0000
19.5402	179.0000
19.5494	201.0000
19.5586	185.0000
19.5678	174.0000
19.5771	170.0000
19.5863	193.0000
19.5955	164.0000
19.6047	164.0000
19.6140	176.0000
19.6232	197.0000
19.6324	179.0000
19.6416	178.0000
19.6509	175.0000
19.6601	157.0000
19.6693	156.0000
19.6785	182.0000
19.6877	176.0000
19.6970	166.0000
19.7062	166.0000
19.7154	164.0000
19.7246	154.0000
19.7339	180.0000
19.7431	178.0000
19.7523	172.0000
19.7615	148.0000
19.7707	184.0000
19.7800	176.0000
19.7892	183.0000
19.7984	176.0000
19.8076	170.0000
19.8169	158.0000
19.8261	157.0000
19.8353	168.0000
19.8445	193.0000
19.8537	156.0000
19.8630	178.0000
19.8722	144.0000
19.8814	188.0000
19.8906	172.0000
19.8999	161.0000
19.9091	204.0000
19.9183	187.0000
19.9275	151.0000
19.9368	161.0000
19.9460	156.0000
19.9552	187.0000
19.9644	141.0000
19.9736	158.0000
19.9829	176.0000
19.9921	174.0000
20.0013	169.0000
20.0105	165.0000
20.0198	171.0000
20.0290	184.0000
20.0382	159.0000
20.0474	155.0000
20.0566	165.0000
20.0659	171.0000
20.0751	171.0000
20.0843	155.0000
20.0935	155.0000
20.1028	172.0000
20.1120	163.0000
20.1212	173.0000
20.1304	178.0000
20.1397	174.0000
20.1489	179.0000
20.1581	180.0000
20.1673	164.0000
20.1765	182.0000
20.1858	160.0000
20.1950	181.0000
20.2042	162.0000
20.2134	172.0000
20.2227	151.0000
20.2319	169.0000
20.2411	172.0000
20.2503	169.0000
20.2595	174.0000
20.2688	177.0000
20.2780	162.0000
20.2872	159.0000
20.2964	172.0000
20.3057	155.0000
20.3149	178.0000
20.3241	149.0000
20.3333	179.0000
20.3426	162.0000
20.3518	185.0000
20.3610	186.0000
20.3702	183.0000
20.3794	165.0000
20.3887	170.0000
20.3979	173.0000
20.4071	185.0000
20.4163	155.0000
20.4256	195.0000
20.4348	180.0000
20.4440	182.0000
20.4532	177.0000
20.4624	171.0000
20.4717	167.0000
20.4809	192.0000
20.4901	174.0000
20.4993	174.0000
20.5086	157.0000
20.5178	165.0000
20.5270	164.0000
20.5362	175.0000
20.5454	156.0000
20.5547	167.0000
20.5639	172.0000
20.5731	175.0000
20.5823	170.0000
20.5916	196.0000
20.6008	195.0000
20.6100	169.0000
20.6192	175.0000
20.6285	177.0000
20.6377	185.0000
20.6469	194.0000
20.6561	218.0000
20.6653	190.0000
20.6746	180.0000
20.6838	195.0000
20.6930	183.0000
20.7022	179.0000
20.7115	199.0000
20.7207	198.0000
20.7299	180.0000
20.7391	182.0000
20.7483	188.0000
20.7576	182.0000
20.7668	195.0000
20.7760	179.0000
20.7852	193.0000
20.7945	193.0000
20.8037	191.0000
20.8129	176.0000
20.8221	189.0000
20.8314	173.0000
20.8406	162.0000
20.8498	187.0000
20.8590	201.0000
20.8682	201.0000
20.8775	162.0000
20.8867	166.0000
20.8959	187.0000
20.9051	150.0000
20.9144	182.0000
20.9236	187.0000
20.9328	159.0000
20.9420	188.0000
20.9512	192.0000
20.9605	180.0000
20.9697	194.0000
20.9789	177.0000
20.9881	177.0000
20.9974	193.0000
21.0066	191.0000
21.0158	184.0000
21.0250	176.0000
21.0342	159.0000
21.0435	178.0000
21.0527	182.0000
21.0619	180.0000
21.0711	196.0000
21.0804	197.0000
21.0896	191.0000
21.0988	201.0000
21.1080	195.0000
21.1173	195.0000
21.1265	181.0000
21.1357	197.0000
21.1449	170.0000
21.1541	192.0000
21.1634	212.0000
21.1726	195.0000
21.1818	222.0000
21.1910	203.0000
21.2003	246.0000
21.2095	259.0000
21.2187	254.0000
21.2279	350.0000
21.2371	416.0000
21.2464	640.0000
21.2556	971.0000
21.2648	1640.0000
21.2740	2395.0000
21.2833	2994.0000
21.2925	2793.0000
21.3017	2117.0000
21.3109	1285.0000
21.3202	799.0000
21.3294	539.0000
21.3386	353.0000
21.3478	347.0000
21.3570	312.0000
21.3663	408.0000
21.3755	548.0000
21.3847	813.0000
21.3939	1133.0000
21.4032	1531.0000
21.4124	1649.0000
21.4216	1531.0000
21.4308	1146.0000
21.4400	650.0000
21.4493	457.0000
21.4585	328.0000
21.4677	270.0000
21.4769	236.0000
21.4862	210.0000
21.4954	214.0000
21.5046	193.0000
21.5138	208.0000
21.5231	200.0000
21.5323	188.0000
21.5415	209.0000
21.5507	193.0000
21.5599	205.0000
21.5692	183.0000
21.5784	194.0000
21.5876	210.0000
21.5968	199.0000
21.6061	214.0000
21.6153	155.0000
21.6245	184.0000
21.6337	193.0000
21.6429	175.0000
21.6522	190.0000
21.6614	191.0000
21.6706	199.0000
21.6798	186.0000
21.6891	182.0000
21.6983	208.0000
21.7075	206.0000
21.7167	166.0000
21.7259	171.0000
21.7352	178.0000
21.7444	195.0000
21.7536	170.0000
21.7628	192.0000
21.7721	181.0000
21.7813	182.0000
21.7905	193.0000
21.7997	148.0000
21.8090	180.0000
21.8182	205.0000
21.8274	182.0000
21.8366	195.0000
21.8458	189.0000
21.8551	176.0000
21.8643	197.0000
21.8735	175.0000
21.8827	190.0000
21.8920	180.0000
21.9012	187.0000
21.9104	199.0000
21.9196	184.0000
21.9288	170.0000
21.9381	190.0000
21.9473	177.0000
21.9565	192.0000
21.9657	173.0000
21.9750	189.0000
21.9842	189.0000
21.9934	174.0000
22.0026	179.0000
22.0119	189.0000
22.0211	187.0000
22.0303	186.0000
22.0395	190.0000
22.0487	185.0000
22.0580	169.0000
22.0672	184.0000
22.0764	185.0000
22.0856	183.0000
22.0949	179.0000
22.1041	183.0000
22.1133	179.0000
22.1225	181.0000
22.1317	197.0000
22.1410	200.0000
22.1502	200.0000
22.1594	192.0000
22.1686	159.0000
22.1779	206.0000
22.1871	163.0000
22.1963	175.0000
22.2055	163.0000
22.2147	181.0000
22.2240	197.0000
22.2332	183.0000
22.2424	159.0000
22.2516	156.0000
22.2609	177.0000
22.2701	168.0000
22.2793	190.0000
22.2885	181.0000
22.2978	184.0000
22.3070	174.0000
22.3162	165.0000
22.3254	187.0000
22.3346	163.0000
22.3439	174.0000
22.3531	167.0000
22.3623	202.0000
22.3715	174.0000
22.3808	184.0000
22.3900	166.0000
22.3992	201.0000
22.4084	170.0000
22.4176	199.0000
22.4269	171.0000
22.4361	173.0000
22.4453	171.0000
22.4545	150.0000
22.4638	168.0000
22.4730	157.0000
22.4822	180.0000
22.4914	151.0000
22.5007	158.0000
22.5099	168.0000
22.5191	186.0000
22.5283	183.0000
22.5375	151.0000
22.5468	180.0000
22.5560	196.0000
22.5652	189.0000
22.5744	167.0000
22.5837	168.0000
22.5929	159.0000
22.6021	165.0000
22.6113	161.0000
22.6205	163.0000
22.6298	134.0000
22.6390	158.0000
22.6482	168.0000
22.6574	153.0000
22.6667	173.0000
22.6759	193.0000
22.6851	176.0000
22.6943	167.0000
22.7036	173.0000
22.7128	138.0000
22.7220	146.0000
22.7312	158.0000
22.7404	164.0000
22.7497	162.0000
22.7589	145.0000
22.7681	149.0000
22.7773	173.0000
22.7866	178.0000
22.7958	164.0000
22.8050	160.0000
22.8142	151.0000
22.8234	171.0000
22.8327	164.0000
22.8419	168.0000
22.8511	155.0000
22.8603	171.0000
22.8696	163.0000
22.8788	165.0000
22.8880	165.0000
22.8972	173.0000
22.9064	182.0000
22.9157	162.0000
22.9249	162.0000
22.9341	158.0000
22.9433	162.0000
22.9526	143.0000
22.9618	162.0000
22.9710	139.0000
22.9802	151.0000
22.9895	151.0000
22.9987	161.0000
23.0079	170.0000
23.0171	179.0000
23.0263	139.0000
23.0356	167.0000
23.0448	169.0000
23.0540	159.0000
23.0632	192.0000
23.0725	156.0000
23.0817	149.0000
23.0909	155.0000
23.1001	149.0000
23.1093	163.0000
23.1186	161.0000
23.1278	156.0000
23.1370	163.0000
23.1462	149.0000
23.1555	173.0000
23.1647	153.0000
23.1739	169.0000
23.1831	188.0000
23.1924	169.0000
23.2016	171.0000
23.2108	155.0000
23.2200	159.0000
23.2292	152.0000
23.2385	174.0000
23.2477	149.0000
23.2569	163.0000
23.2661	172.0000
23.2754	165.0000
23.2846	162.0000
23.2938	157.0000
23.3030	170.0000
23.3122	158.0000
23.3215	149.0000
23.3307	156.0000
23.3399	146.0000
23.3491	158.0000
23.3584	132.0000
23.3676	180.0000
23.3768	160.0000
23.3860	172.0000
23.3952	181.0000
23.4045	159.0000
23.4137	175.0000
23.4229	144.0000
23.4321	160.0000
23.4414	162.0000
23.4506	164.0000
23.4598	165.0000
23.4690	167.0000
23.4783	166.0000
23.4875	168.0000
23.4967	159.0000
23.5059	153.0000
23.5151	166.0000
23.5244	175.0000
23.5336	184.0000
23.5428	152.0000
23.5520	159.0000
23.5613	139.0000
23.5705	143.0000
23.5797	153.0000
23.5889	162.0000
23.5981	160.0000
23.6074	171.0000
23.6166	149.0000
23.6258	165.0000
23.6350	165.0000
23.6443	160.0000
23.6535	161.0000
23.6627	165.0000
23.6719	158.0000
23.6812	151.0000
23.6904	157.0000
23.6996	167.0000
23.7088	181.0000
23.7180	151.0000
23.7273	166.0000
23.7365	144.0000
23.7457	139.0000
23.7549	157.0000
23.7642	147.0000
23.7734	186.0000
23.7826	170.0000
23.7918	158.0000
23.8010	159.0000
23.8103	174.0000
23.8195	159.0000
23.8287	153.0000
23.8379	131.0000
23.8472	135.0000
23.8564	183.0000
23.8656	173.0000
23.8748	164.0000
23.8841	165.0000
23.8933	161.0000
23.9025	152.0000
23.9117	176.0000
23.9209	161.0000
23.9302	159.0000
23.9394	174.0000
23.9486	167.0000
23.9578	174.0000
23.9671	170.0000
23.9763	162.0000
23.9855	150.0000
23.9947	164.0000
24.0039	144.0000
24.0132	161.0000
24.0224	153.0000
24.0316	164.0000
24.0408	171.0000
24.0501	153.0000
24.0593	159.0000
24.0685	172.0000
24.0777	175.0000
24.0869	165.0000
24.0962	154.0000
24.1054	139.0000
24.1146	148.0000
24.1238	144.0000
24.1331	199.0000
24.1423	170.0000
24.1515	150.0000
24.1607	159.0000
24.1700	161.0000
24.1792	164.0000
24.1884	154.0000
24.1976	143.0000
24.2068	167.0000
24.2161	182.0000
24.2253	166.0000
24.2345	164.0000
24.2437	167.0000
24.2530	177.0000
24.2622	158.0000
24.2714	143.0000
24.2806	154.0000
24.2898	147.0000
24.2991	159.0000
24.3083	135.0000
24.3175	175.0000
24.3267	173.0000
24.3360	165.0000
24.3452	170.0000
24.3544	165.0000
24.3636	173.0000
24.3729	158.0000
24.3821	171.0000
24.3913	165.0000
24.4005	179.0000
24.4097	172.0000
24.4190	181.0000
24.4282	176.0000
24.4374	159.0000
24.4466	151.0000
24.4559	135.0000
24.4651	165.0000
24.4743	163.0000
24.4835	184.0000
24.4927	140.0000
24.5020	173.0000
24.5112	168.0000
24.5204	173.0000
24.5296	164.0000
24.5389	157.0000
24.5481	140.0000
24.5573	156.0000
24.5665	165.0000
24.5757	183.0000
24.5850	161.0000
24.5942	169.0000
24.6034	196.0000
24.6126	170.0000
24.6219	150.0000
24.6311	152.0000
24.6403	164.0000
24.6495	183.0000
24.6588	163.0000
24.6680	158.0000
24.6772	164.0000
24.6864	148.0000
24.6956	174.0000
24.7049	149.0000
24.7141	179.0000
24.7233	171.0000
24.7325	179.0000
24.7418	159.0000
24.7510	174.0000
24.7602	161.0000
24.7694	195.0000
24.7786	162.0000
24.7879	143.0000
24.7971	150.0000
24.8063	142.0000
24.8155	170.0000
24.8248	171.0000
24.8340	169.0000
24.8432	142.0000
24.8524	171.0000
24.8617	168.0000
24.8709	176.0000
24.8801	170.0000
24.8893	153.0000
24.8985	159.0000
24.9078	152.0000
24.9170	162.0000
24.9262	163.0000
24.9354	151.0000
24.9447	171.0000
24.9539	158.0000
24.9631	176.0000
24.9723	152.0000
24.9815	147.0000
24.9908	182.0000
25.0000	163.0000
25.0092	175.0000
25.0184	160.0000
25.0277	169.0000
25.0369	174.0000
25.0461	174.0000
25.0553	178.0000
25.0646	170.0000
25.0738	176.0000
25.0830	165.0000
25.0922	171.0000
25.1014	160.0000
25.1107	167.0000
25.1199	178.0000
25.1291	194.0000
25.1383	169.0000
25.1476	172.0000
25.1568	162.0000
25.1660	153.0000
25.1752	171.0000
25.1844	134.0000
25.1937	160.0000
25.2029	172.0000
25.2121	180.0000
25.2213	168.0000
25.2306	162.0000
25.2398	127.0000
25.2490	154.0000
25.2582	163.0000
25.2674	171.0000
25.2767	167.0000
25.2859	169.0000
25.2951	169.0000
25.3043	178.0000
25.3136	166.0000
25.3228	172.0000
25.3320	167.0000
25.3412	181.0000
25.3505	191.0000
25.3597	189.0000
25.3689	157.0000
25.3781	176.0000
25.3873	181.0000
25.3966	159.0000
25.4058	157.0000
25.4150	150.0000
25.4242	157.0000
25.4335	176.0000
25.4427	174.0000
25.4519	168.0000
25.4611	170.0000
25.4703	158.0000
25.4796	172.0000
25.4888	179.0000
25.4980	160.0000
25.5072	176.0000
25.5165	165.0000
25.5257	163.0000
25.5349	181.0000
25.5441	165.0000
25.5534	152.0000
25.5626	207.0000
25.5718	189.0000
25.5810	170.0000
25.5902	166.0000
25.5995	184.0000
25.6087	166.0000
25.6179	169.0000
25.6271	185.0000
25.6364	161.0000
25.6456	177.0000
25.6548	157.0000
25.6640	188.0000
25.6732	190.0000
25.6825	161.0000
25.6917	157.0000
25.7009	149.0000
25.7101	174.0000
25.7194	176.0000
25.7286	174.0000
25.7378	166.0000
25.7470	159.0000
25.7562	179.0000
25.7655	152.0000
25.7747	162.0000
25.7839	174.0000
25.7931	162.0000
25.8024	167.0000
25.8116	148.0000
25.8208	172.0000
25.8300	168.0000
25.8393	183.0000
25.8485	168.0000
25.8577	171.0000
25.8669	180.0000
25.8761	169.0000
25.8854	169.0000
25.8946	195.0000
25.9038	145.0000
25.9130	179.0000
25.9223	141.0000
25.9315	157.0000
25.9407	148.0000
25.9499	181.0000
25.9591	178.0000
25.9684	171.0000
25.9776	177.0000
25.9868	176.0000
25.9960	170.0000
26.0053	161.0000
26.0145	154.0000
26.0237	171.0000
26.0329	184.0000
26.0422	164.0000
26.0514	164.0000
26.0606	194.0000
26.0698	146.0000
26.0790	162.0000
26.0883	149.0000
26.0975	175.0000
26.1067	212.0000
26.1159	175.0000
26.1252	190.0000
26.1344	170.0000
26.1436	167.0000
26.1528	161.0000
26.1620	160.0000
26.1713	182.0000
26.1805	170.0000
26.1897	178.0000
26.1989	168.0000
26.2082	168.0000
26.2174	156.0000
26.2266	178.0000
26.2358	161.0000
26.2451	175.0000
26.2543	171.0000
26.2635	165.0000
26.2727	158.0000
26.2819	138.0000
26.2912	177.0000
26.3004	178.0000
26.3096	164.0000
26.3188	189.0000
26.3281	156.0000
26.3373	185.0000
26.3465	178.0000
26.3557	173.0000
26.3649	172.0000
26.3742	167.0000
26.3834	166.0000
26.3926	181.0000
26.4018	191.0000
26.4111	143.0000
26.4203	184.0000
26.4295	205.0000
26.4387	181.0000
26.4479	177.0000
26.4572	164.0000
26.4664	173.0000
26.4756	179.0000
26.4848	159.0000
26.4941	189.0000
26.5033	157.0000
26.5125	190.0000
26.5217	186.0000
26.5310	202.0000
26.5402	180.0000
26.5494	169.0000
26.5586	160.0000
26.5678	169.0000
26.5771	182.0000
26.5863	161.0000
26.5955	195.0000
26.6047	182.0000
26.6140	181.0000
26.6232	190.0000
26.6324	188.0000
26.6416	181.0000
26.6508	169.0000
26.6601	205.0000
26.6693	179.0000
26.6785	164.0000
26.6877	175.0000
26.6970	167.0000
26.7062	171.0000
26.7154	178.0000
26.7246	189.0000
26.7339	182.0000
26.7431	172.0000
26.7523	198.0000
26.7615	166.0000
26.7707	178.0000
26.7800	199.0000
26.7892	175.0000
26.7984	165.0000
26.8076	183.0000
26.8169	185.0000
26.8261	177.0000
26.8353	177.0000
26.8445	226.0000
26.8537	162.0000
26.8630	163.0000
26.8722	179.0000
26.8814	149.0000
26.8906	171.0000
26.8999	184.0000
26.9091	177.0000
26.9183	180.0000
26.9275	200.0000
26.9367	184.0000
26.9460	178.0000
26.9552	172.0000
26.9644	183.0000
26.9736	174.0000
26.9829	174.0000
26.9921	166.0000
27.0013	174.0000
27.0105	165.0000
27.0198	208.0000
27.0290	162.0000
27.0382	174.0000
27.0474	177.0000
27.0566	180.0000
27.0659	194.0000
27.0751	197.0000
27.0843	186.0000
27.0935	193.0000
27.1028	184.0000
27.1120	170.0000
27.1212	167.0000
27.1304	194.0000
27.1396	166.0000
27.1489	182.0000
27.1581	195.0000
27.1673	189.0000
27.1765	142.0000
27.1858	198.0000
27.1950	186.0000
27.2042	173.0000
27.2134	162.0000
27.2227	183.0000
27.2319	172.0000
27.2411	173.0000
27.2503	174.0000
27.2595	171.0000
27.2688	181.0000
27.2780	200.0000
27.2872	168.0000
27.2964	170.0000
27.3057	169.0000
27.3149	166.0000
27.3241	178.0000
27.3333	168.0000
27.3425	162.0000
27.3518	182.0000
27.3610	178.0000
27.3702	195.0000
27.3794	175.0000
27.3887	198.0000
27.3979	182.0000
27.4071	197.0000
27.4163	178.0000
27.4256	195.0000
27.4348	187.0000
27.4440	186.0000
27.4532	179.0000
27.4624	203.0000
27.4717	181.0000
27.4809	178.0000
27.4901	175.0000
27.4993	173.0000
27.5086	171.0000
27.5178	168.0000
27.5270	192.0000
27.5362	191.0000
27.5454	173.0000
27.5547	196.0000
27.5639	205.0000
27.5731	191.0000
27.5823	223.0000
27.5916	159.0000
27.6008	196.0000
27.6100	167.0000
27.6192	165.0000
27.6284	171.0000
27.6377	198.0000
27.6469	187.0000
27.6561	187.0000
27.6653	167.0000
27.6746	184.0000
27.6838	211.0000
27.6930	177.0000
27.7022	180.0000
27.7115	173.0000
27.7207	171.0000
27.7299	174.0000
27.7391	163.0000
27.7483	149.0000
27.7576	208.0000
27.7668	193.0000
27.7760	180.0000
27.7852	184.0000
27.7945	202.0000
27.8037	192.0000
27.8129	193.0000
27.8221	165.0000
27.8313	193.0000
27.8406	172.0000
27.8498	175.0000
27.8590	183.0000
27.8682	169.0000
27.8775	187.0000
27.8867	188.0000
27.8959	173.0000
27.9051	216.0000
27.9144	189.0000
27.9236	172.0000
27.9328	193.0000
27.9420	186.0000
27.9512	194.0000
27.9605	177.0000
27.9697	156.0000
27.9789	174.0000
27.9881	190.0000
27.9974	171.0000
28.0066	179.0000
28.0158	200.0000
28.0250	170.0000
28.0342	211.0000
28.0435	176.0000
28.0527	170.0000
28.0619	194.0000
28.0711	186.0000
28.0804	196.0000
28.0896	159.0000
28.0988	194.0000
28.1080	217.0000
28.1172	181.0000
28.1265	185.0000
28.1357	203.0000
28.1449	189.0000
28.1541	199.0000
28.1634	170.0000
28.1726	181.0000
28.1818	185.0000
28.1910	184.0000
28.2003	206.0000
28.2095	177.0000
28.2187	193.0000
28.2279	197.0000
28.2371	172.0000
28.2464	200.0000
28.2556	177.0000
28.2648	191.0000
28.2740	187.0000
28.2833	177.0000
28.2925	184.0000
28.3017	168.0000
28.3109	189.0000
28.3201	182.0000
28.3294	195.0000
28.3386	178.0000
28.3478	196.0000
28.3570	177.0000
28.3663	184.0000
28.3755	182.0000
28.3847	179.0000
28.3939	173.0000
28.4032	200.0000
28.4124	212.0000
28.4216	203.0000
28.4308	195.0000
28.4400	188.0000
28.4493	197.0000
28.4585	185.0000
28.4677	189.0000
28.4769	177.0000
28.4862	205.0000
28.4954	184.0000
28.5046	205.0000
28.5138	176.0000
28.5230	187.0000
28.5323	191.0000
28.5415	180.0000
28.5507	185.0000
28.5599	165.0000
28.5692	198.0000
28.5784	187.0000
28.5876	182.0000
28.5968	198.0000
28.6061	187.0000
28.6153	194.0000
28.6245	177.0000
28.6337	189.0000
28.6429	184.0000
28.6522	223.0000
28.6614	192.0000
28.6706	169.0000
28.6798	180.0000
28.6891	191.0000
28.6983	182.0000
28.7075	179.0000
28.7167	179.0000
28.7259	187.0000
28.7352	185.0000
28.7444	181.0000
28.7536	196.0000
28.7628	173.0000
28.7721	197.0000
28.7813	184.0000
28.7905	187.0000
28.7997	192.0000
28.8089	190.0000
28.8182	186.0000
28.8274	176.0000
28.8366	197.0000
28.8458	176.0000
28.8551	186.0000
28.8643	212.0000
28.8735	188.0000
28.8827	171.0000
28.8920	197.0000
28.9012	212.0000
28.9104	176.0000
28.9196	213.0000
28.9288	190.0000
28.9381	206.0000
28.9473	194.0000
28.9565	194.0000
28.9657	182.0000
28.9750	180.0000
28.9842	188.0000
28.9934	168.0000
29.0026	184.0000
29.0118	190.0000
29.0211	212.0000
29.0303	195.0000
29.0395	223.0000
29.0487	185.0000
29.0580	195.0000
29.0672	195.0000
29.0764	184.0000
29.0856	165.0000
29.0949	171.0000
29.1041	192.0000
29.1133	198.0000
29.1225	182.0000
29.1317	181.0000
29.1410	181.0000
29.1502	168.0000
29.1594	171.0000
29.1686	215.0000
29.1779	189.0000
29.1871	202.0000
29.1963	164.0000
29.2055	166.0000
29.2147	196.0000
29.2240	189.0000
29.2332	202.0000
29.2424	209.0000
29.2516	210.0000
29.2609	207.0000
29.2701	179.0000
29.2793	190.0000
29.2885	183.0000
29.2977	166.0000
29.3070	188.0000
29.3162	178.0000
29.3254	171.0000
29.3346	171.0000
29.3439	193.0000
29.3531	187.0000
29.3623	188.0000
29.3715	182.0000
29.3808	160.0000
29.3900	192.0000
29.3992	183.0000
29.4084	193.0000
29.4176	191.0000
29.4269	194.0000
29.4361	184.0000
29.4453	175.0000
29.4545	197.0000
29.4638	203.0000
29.4730	186.0000
29.4822	193.0000
29.4914	203.0000
29.5006	198.0000
29.5099	184.0000
29.5191	209.0000
29.5283	166.0000
29.5375	206.0000
29.5468	203.0000
29.5560	217.0000
29.5652	185.0000
29.5744	208.0000
29.5837	214.0000
29.5929	164.0000
29.6021	198.0000
29.6113	199.0000
29.6205	190.0000
29.6298	189.0000
29.6390	195.0000
29.6482	181.0000
29.6574	172.0000
29.6667	184.0000
29.6759	167.0000
29.6851	195.0000
29.6943	172.0000
29.7035	181.0000
29.7128	207.0000
29.7220	187.0000
29.7312	200.0000
29.7404	180.0000
29.7497	196.0000
29.7589	169.0000
29.7681	171.0000
29.7773	196.0000
29.7866	198.0000
29.7958	183.0000
29.8050	201.0000
29.8142	181.0000
29.8234	214.0000
29.8327	187.0000
29.8419	204.0000
29.8511	179.0000
29.8603	179.0000
29.8696	206.0000
29.8788	197.0000
29.8880	180.0000
29.8972	180.0000
29.9064	208.0000
29.9157	203.0000
29.9249	178.0000
29.9341	171.0000
29.9433	177.0000
29.9526	175.0000
29.9618	191.0000
29.9710	192.0000
29.9802	194.0000
29.9894	181.0000
29.9987	184.0000
30.0079	191.0000
30.0171	177.0000
30.0263	185.0000
30.0356	187.0000
30.0448	197.0000
30.0540	186.0000
30.0632	197.0000
30.0725	213.0000
30.0817	173.0000
30.0909	186.0000
30.1001	185.0000
30.1093	202.0000
30.1186	167.0000
30.1278	193.0000
30.1370	190.0000
30.1462	198.0000
30.1555	163.0000
30.1647	197.0000
30.1739	195.0000
30.1831	165.0000
30.1923	204.0000
30.2016	173.0000
30.2108	188.0000
30.2200	183.0000
30.2292	183.0000
30.2385	202.0000
30.2477	166.0000
30.2569	166.0000
30.2661	208.0000
30.2754	186.0000
30.2846	166.0000
30.2938	180.0000
30.3030	200.0000
30.3122	160.0000
30.3215	191.0000
30.3307	179.0000
30.3399	188.0000
30.3491	165.0000
30.3584	177.0000
30.3676	195.0000
30.3768	198.0000
30.3860	192.0000
30.3952	199.0000
30.4045	190.0000
30.4137	196.0000
30.4229	196.0000
30.4321	180.0000
30.4414	192.0000
30.4506	170.0000
30.4598	219.0000
30.4690	177.0000
30.4782	187.0000
30.4875	179.0000
30.4967	183.0000
30.5059	183.0000
30.5151	226.0000
30.5244	193.0000
30.5336	188.0000
30.5428	192.0000
30.5520	189.0000
30.5613	206.0000
30.5705	182.0000
30.5797	189.0000
30.5889	181.0000
30.5981	181.0000
30.6074	171.0000
30.6166	216.0000
30.6258	184.0000
30.6350	179.0000
30.6443	199.0000
30.6535	171.0000
30.6627	163.0000
30.6719	172.0000
30.6811	173.0000
30.6904	190.0000
30.6996	187.0000
30.7088	170.0000
30.7180	177.0000
30.7273	197.0000
30.7365	195.0000
30.7457	194.0000
30.7549	196.0000
30.7642	178.0000
30.7734	165.0000
30.7826	182.0000
30.7918	229.0000
30.8010	193.0000
30.8103	189.0000
30.8195	178.0000
30.8287	175.0000
30.8379	175.0000
30.8472	159.0000
30.8564	167.0000
30.8656	197.0000
30.8748	185.0000
30.8840	176.0000
30.8933	191.0000
30.9025	176.0000
30.9117	184.0000
30.9209	207.0000
30.9302	173.0000
30.9394	183.0000
30.9486	192.0000
30.9578	214.0000
30.9671	180.0000
30.9763	182.0000
30.9855	198.0000
30.9947	170.0000
31.0039	182.0000
31.0132	181.0000
31.0224	187.0000
31.0316	188.0000
31.0408	171.0000
31.0501	191.0000
31.0593	217.0000
31.0685	179.0000
31.0777	205.0000
31.0869	172.0000
31.0962	181.0000
31.1054	209.0000
31.1146	175.0000
31.1238	185.0000
31.1331	185.0000
31.1423	202.0000
31.1515	184.0000
31.1607	175.0000
31.1699	189.0000
31.1792	202.0000
31.1884	198.0000
31.1976	165.0000
31.2068	162.0000
31.2161	191.0000
31.2253	167.0000
31.2345	168.0000
31.2437	183.0000
31.2530	168.0000
31.2622	161.0000
31.2714	198.0000
31.2806	180.0000
31.2898	175.0000
31.2991	175.0000
31.3083	184.0000
31.3175	188.0000
31.3267	185.0000
31.3360	192.0000
31.3452	190.0000
31.3544	188.0000
31.3636	178.0000
31.3728	187.0000
31.3821	177.0000
31.3913	194.0000
31.4005	202.0000
31.4097	200.0000
31.4190	180.0000
31.4282	175.0000
31.4374	182.0000
31.4466	198.0000
31.4559	199.0000
31.4651	189.0000
31.4743	188.0000
31.4835	187.0000
31.4927	184.0000
31.5020	173.0000
31.5112	188.0000
31.5204	166.0000
31.5296	194.0000
31.5389	194.0000
31.5481	214.0000
31.5573	186.0000
31.5665	185.0000
31.5757	198.0000
31.5850	190.0000
31.5942	173.0000
31.6034	190.0000
31.6126	180.0000
31.6219	185.0000
31.6311	190.0000
31.6403	199.0000
31.6495	173.0000
31.6587	190.0000
31.6680	178.0000
31.6772	194.0000
31.6864	192.0000
31.6956	187.0000
31.7049	192.0000
31.7141	180.0000
31.7233	187.0000
31.7325	193.0000
31.7418	182.0000
31.7510	194.0000
31.7602	174.0000
31.7694	169.0000
31.7786	213.0000
31.7879	184.0000
31.7971	195.0000
31.8063	164.0000
31.8155	183.0000
31.8248	185.0000
31.8340	164.0000
31.8432	179.0000
31.8524	174.0000
31.8616	174.0000
31.8709	174.0000
31.8801	209.0000
31.8893	187.0000
31.8985	196.0000
31.9078	190.0000
31.9170	202.0000
31.9262	171.0000
31.9354	172.0000
31.9447	161.0000
31.9539	176.0000
31.9631	167.0000
31.9723	167.0000
31.9815	187.0000
31.9908	174.0000
32.0000	189.0000
32.0092	189.0000
32.0184	203.0000
32.0277	195.0000
32.0369	204.0000
32.0461	169.0000
32.0553	192.0000
32.0645	191.0000
32.0738	176.0000
32.0830	185.0000
32.0922	173.0000
32.1014	166.0000
32.1107	188.0000
32.1199	192.0000
32.1291	176.0000
32.1383	206.0000
32.1476	164.0000
32.1568	188.0000
32.1660	196.0000
32.1752	171.0000
32.1844	203.0000
32.1937	185.0000
32.2029	168.0000
32.2121	195.0000
32.2213	184.0000
32.2306	183.0000
32.2398	205.0000
32.2490	171.0000
32.2582	202.0000
32.2674	173.0000
32.2767	184.0000
32.2859	162.0000
32.2951	169.0000
32.3043	193.0000
32.3136	195.0000
32.3228	172.0000
32.3320	191.0000
32.3412	184.0000
32.3504	191.0000
32.3597	179.0000
32.3689	176.0000
32.3781	213.0000
32.3873	181.0000
32.3966	193.0000
32.4058	178.0000
32.4150	182.0000
32.4242	204.0000
32.4335	196.0000
32.4427	219.0000
32.4519	170.0000
32.4611	192.0000
32.4703	174.0000
32.4796	202.0000
32.4888	179.0000
32.4980	180.0000
32.5072	176.0000
32.5165	175.0000
32.5257	191.0000
32.5349	198.0000
32.5441	194.0000
32.5533	197.0000
32.5626	208.0000
32.5718	176.0000
32.5810	186.0000
32.5902	191.0000
32.5995	185.0000
32.6087	170.0000
32.6179	198.0000
32.6271	184.0000
32.6364	181.0000
32.6456	196.0000
32.6548	195.0000
32.6640	198.0000
32.6732	184.0000
32.6825	186.0000
32.6917	173.0000
32.7009	168.0000
32.7101	202.0000
32.7194	182.0000
32.7286	192.0000
32.7378	186.0000
32.7470	201.0000
32.7562	196.0000
32.7655	177.0000
32.7747	190.0000
32.7839	208.0000
32.7931	211.0000
32.8024	174.0000
32.8116	201.0000
32.8208	167.0000
32.8300	176.0000
32.8392	186.0000
32.8485	189.0000
32.8577	189.0000
32.8669	206.0000
32.8761	200.0000
32.8854	170.0000
32.8946	187.0000
32.9038	183.0000
32.9130	210.0000
32.9223	203.0000
32.9315	178.0000
32.9407	160.0000
32.9499	175.0000
32.9591	183.0000
32.9684	202.0000
32.9776	186.0000
32.9868	210.0000
32.9960	180.0000
33.0053	199.0000
33.0145	163.0000
33.0237	207.0000
33.0329	186.0000
33.0421	189.0000
33.0514	196.0000
33.0606	197.0000
33.0698	185.0000
33.0790	187.0000
33.0883	172.0000
33.0975	194.0000
33.1067	189.0000
33.1159	204.0000
33.1252	194.0000
33.1344	186.0000
33.1436	206.0000
33.1528	188.0000
33.1620	165.0000
33.1713	155.0000
33.1805	177.0000
33.1897	175.0000
33.1989	202.0000
33.2082	198.0000
33.2174	194.0000
33.2266	177.0000
33.2358	184.0000
33.2450	177.0000
33.2543	185.0000
33.2635	184.0000
33.2727	213.0000
33.2819	165.0000
33.2912	177.0000
33.3004	171.0000
33.3096	189.0000
33.3188	189.0000
33.3281	168.0000
33.3373	173.0000
33.3465	198.0000
33.3557	165.0000
33.3649	178.0000
33.3742	200.0000
33.3834	187.0000
33.3926	184.0000
33.4018	197.0000
33.4111	170.0000
33.4203	187.0000
33.4295	189.0000
33.4387	189.0000
33.4479	196.0000
33.4572	164.0000
33.4664	176.0000
33.4756	199.0000
33.4848	199.0000
33.4941	178.0000
33.5033	193.0000
33.5125	178.0000
33.5217	172.0000
33.5309	182.0000
33.5402	188.0000
33.5494	197.0000
33.5586	193.0000
33.5678	198.0000
33.5771	177.0000
33.5863	182.0000
33.5955	179.0000
33.6047	181.0000
33.6140	189.0000
33.6232	185.0000
33.6324	207.0000
33.6416	190.0000
33.6508	188.0000
33.6601	187.0000
33.6693	186.0000
33.6785	178.0000
33.6877	189.0000
33.6970	182.0000
33.7062	215.0000
33.7154	196.0000
33.7246	168.0000
33.7338	172.0000
33.7431	172.0000
33.7523	187.0000
33.7615	177.0000
33.7707	180.0000
33.7800	207.0000
33.7892	180.0000
33.7984	181.0000
33.8076	201.0000
33.8169	189.0000
33.8261	186.0000
33.8353	192.0000
33.8445	168.0000
33.8537	187.0000
33.8630	180.0000
33.8722	181.0000
33.8814	204.0000
33.8906	200.0000
33.8999	168.0000
33.9091	184.0000
33.9183	183.0000
33.9275	190.0000
33.9367	174.0000
33.9460	173.0000
33.9552	145.0000
33.9644	191.0000
33.9736	196.0000
33.9829	176.0000
33.9921	173.0000
34.0013	186.0000
34.0105	187.0000
34.0197	167.0000
34.0290	169.0000
34.0382	169.0000
34.0474	183.0000
34.0566	200.0000
34.0659	178.0000
34.0751	170.0000
34.0843	196.0000
34.0935	169.0000
34.1028	183.0000
34.1120	193.0000
34.1212	160.0000
34.1304	163.0000
34.1396	180.0000
34.1489	182.0000
34.1581	181.0000
34.1673	188.0000
34.1765	184.0000
34.1858	186.0000
34.1950	197.0000
34.2042	165.0000
34.2134	175.0000
34.2226	184.0000
34.2319	190.0000
34.2411	197.0000
34.2503	214.0000
34.2595	156.0000
34.2688	196.0000
34.2780	175.0000
34.2872	155.0000
34.2964	204.0000
34.3057	197.0000
34.3149	175.0000
34.3241	174.0000
34.3333	203.0000
34.3425	162.0000
34.3518	174.0000
34.3610	174.0000
34.3702	200.0000
34.3794	171.0000
34.3887	188.0000
34.3979	186.0000
34.4071	174.0000
34.4163	180.0000
34.4255	192.0000
34.4348	174.0000
34.4440	172.0000
34.4532	200.0000
34.4624	182.0000
34.4717	195.0000
34.4809	170.0000
34.4901	173.0000
34.4993	193.0000
34.5086	188.0000
34.5178	164.0000
34.5270	194.0000
34.5362	160.0000
34.5454	177.0000
34.5547	184.0000
34.5639	170.0000
34.5731	185.0000
34.5823	169.0000
34.5916	164.0000
34.6008	170.0000
34.6100	163.0000
34.6192	206.0000
34.6284	152.0000
34.6377	156.0000
34.6469	167.0000
34.6561	189.0000
34.6653	172.0000
34.6746	171.0000
34.6838	174.0000
34.6930	173.0000
34.7022	179.0000
34.7114	175.0000
34.7207	198.0000
34.7299	187.0000
34.7391	153.0000
34.7483	179.0000
34.7576	164.0000
34.7668	161.0000
34.7760	166.0000
34.7852	173.0000
34.7945	164.0000
34.8037	173.0000
34.8129	145.0000
34.8221	168.0000
34.8313	139.0000
34.8406	170.0000
34.8498	165.0000
34.8590	162.0000
34.8682	168.0000
34.8775	174.0000
34.8867	184.0000
34.8959	159.0000
34.9051	182.0000
34.9143	170.0000
34.9236	135.0000
34.9328	165.0000
34.9420	147.0000
34.9512	173.0000
34.9605	169.0000
34.9697	165.0000
34.9789	159.0000
34.9881	174.0000
34.9974	135.0000
35.0066	189.0000
35.0158	141.0000
35.0250	156.0000
35.0342	194.0000
35.0435	167.0000
35.0527	142.0000
35.0619	151.0000
35.0711	149.0000
35.0804	162.0000
35.0896	161.0000
35.0988	157.0000
35.1080	159.0000
35.1172	136.0000
35.1265	160.0000
35.1357	129.0000
35.1449	156.0000
35.1541	123.0000
35.1634	147.0000
35.1726	133.0000
35.1818	138.0000
35.1910	157.0000
35.2002	153.0000
35.2095	139.0000
35.2187	158.0000
35.2279	152.0000
35.2371	164.0000
35.2464	141.0000
35.2556	181.0000
35.2648	178.0000
35.2740	166.0000
35.2833	160.0000
35.2925	159.0000
35.3017	149.0000
35.3109	168.0000
35.3201	161.0000
35.3294	152.0000
35.3386	160.0000
35.3478	171.0000
35.3570	173.0000
35.3663	160.0000
35.3755	155.0000
35.3847	152.0000
35.3939	154.0000
35.4031	166.0000
35.4124	135.0000
35.4216	155.0000
35.4308	152.0000
35.4400	169.0000
35.4493	153.0000
35.4585	156.0000
35.4677	133.0000
35.4769	162.0000
35.4862	154.0000
35.4954	146.0000
35.5046	155.0000
35.5138	161.0000
35.5230	145.0000
35.5323	164.0000
35.5415	149.0000
35.5507	154.0000
35.5599	142.0000
35.5692	130.0000
35.5784	151.0000
35.5876	144.0000
35.5968	128.0000
35.6060	166.0000
35.6153	153.0000
35.6245	156.0000
35.6337	148.0000
35.6429	149.0000
35.6522	152.0000
35.6614	155.0000
35.6706	163.0000
35.6798	133.0000
35.6891	149.0000
35.6983	135.0000
35.7075	164.0000
35.7167	149.0000
35.7259	150.0000
35.7352	160.0000
35.7444	129.0000
35.7536	141.0000
35.7628	144.0000
35.7721	127.0000
35.7813	144.0000
35.7905	145.0000
35.7997	154.0000
35.8089	171.0000
35.8182	149.0000
35.8274	165.0000
35.8366	157.0000
35.8458	130.0000
35.8551	135.0000
35.8643	148.0000
35.8735	138.0000
35.8827	151.0000
35.8919	147.0000
35.9012	156.0000
35.9104	147.0000
35.9196	138.0000
35.9288	145.0000
35.9381	142.0000
35.9473	153.0000
35.9565	126.0000
35.9657	113.0000
35.9750	157.0000
35.9842	149.0000
35.9934	129.0000
36.0026	143.0000
36.0118	134.0000
36.0211	135.0000
36.0303	146.0000
36.0395	152.0000
36.0487	125.0000
36.0580	137.0000
36.0672	147.0000
36.0764	150.0000
36.0856	113.0000
36.0948	134.0000
36.1041	134.0000
36.1133	125.0000
36.1225	136.0000
36.1317	124.0000
36.1410	150.0000
36.1502	148.0000
36.1594	149.0000
36.1686	141.0000
36.1779	115.0000
36.1871	128.0000
36.1963	103.0000
36.2055	132.0000
36.2147	124.0000
36.2240	124.0000
36.2332	140.0000
36.2424	125.0000
36.2516	125.0000
36.2609	141.0000
36.2701	112.0000
36.2793	107.0000
36.2885	127.0000
36.2977	143.0000
36.3070	125.0000
36.3162	143.0000
36.3254	154.0000
36.3346	122.0000
36.3439	122.0000
36.3531	135.0000
36.3623	122.0000
36.3715	132.0000
36.3807	120.0000
36.3900	153.0000
36.3992	134.0000
36.4084	137.0000
36.4176	142.0000
36.4269	129.0000
36.4361	143.0000
36.4453	131.0000
36.4545	105.0000
36.4638	111.0000
36.4730	123.0000
36.4822	148.0000
36.4914	135.0000
36.5006	125.0000
36.5099	129.0000
36.5191	104.0000
36.5283	109.0000
36.5375	118.0000
36.5468	129.0000
36.5560	137.0000
36.5652	124.0000
36.5744	140.0000
36.5836	123.0000
36.5929	116.0000
36.6021	125.0000
36.6113	125.0000
36.6205	146.0000
36.6298	110.0000
36.6390	136.0000
36.6482	112.0000
36.6574	108.0000
36.6667	122.0000
36.6759	135.0000
36.6851	130.0000
36.6943	111.0000
36.7035	131.0000
36.7128	105.0000
36.7220	152.0000
36.7312	121.0000
36.7404	124.0000
36.7497	95.0000
36.7589	113.0000
36.7681	116.0000
36.7773	126.0000
36.7865	132.0000
36.7958	128.0000
36.8050	114.0000
36.8142	112.0000
36.8234	114.0000
36.8327	126.0000
36.8419	143.0000
36.8511	134.0000
36.8603	124.0000
36.8696	119.0000
36.8788	112.0000
36.8880	114.0000
36.8972	131.0000
36.9064	124.0000
36.9157	126.0000
36.9249	94.0000
36.9341	111.0000
36.9433	98.0000
36.9526	119.0000
36.9618	113.0000
36.9710	100.0000
36.9802	112.0000
36.9894	146.0000
36.9987	119.0000
37.0079	136.0000
37.0171	117.0000
37.0263	120.0000
37.0356	115.0000
37.0448	122.0000
37.0540	107.0000
37.0632	127.0000
37.0724	120.0000
37.0817	103.0000
37.0909	115.0000
37.1001	129.0000
37.1093	130.0000
37.1186	135.0000
37.1278	134.0000
37.1370	112.0000
37.1462	111.0000
37.1555	119.0000
37.1647	140.0000
37.1739	120.0000
37.1831	130.0000
37.1923	111.0000
37.2016	116.0000
37.2108	117.0000
37.2200	131.0000
37.2292	114.0000
37.2385	110.0000
37.2477	130.0000
37.2569	137.0000
37.2661	159.0000
37.2753	187.0000
37.2846	228.0000
37.2938	280.0000
37.3030	385.0000
37.3122	452.0000
37.3215	565.0000
37.3307	528.0000
37.3399	409.0000
37.3491	298.0000
37.3584	222.0000
37.3676	164.0000
37.3768	171.0000
37.3860	140.0000
37.3952	145.0000
37.4045	127.0000
37.4137	131.0000
37.4229	112.0000
37.4321	132.0000
37.4414	109.0000
37.4506	106.0000
37.4598	131.0000
37.4690	99.0000
37.4782	140.0000
37.4875	110.0000
37.4967	147.0000
37.5059	159.0000
37.5151	179.0000
37.5244	221.0000
37.5336	273.0000
37.5428	330.0000
37.5520	311.0000
37.5612	307.0000
37.5705	243.0000
37.5797	189.0000
37.5889	153.0000
37.5981	149.0000
37.6074	137.0000
37.6166	126.0000
37.6258	131.0000
37.6350	121.0000
37.6443	101.0000
37.6535	122.0000
37.6627	109.0000
37.6719	109.0000
37.6811	95.0000
37.6904	95.0000
37.6996	97.0000
37.7088	112.0000
37.7180	98.0000
37.7273	125.0000
37.7365	95.0000
37.7457	128.0000
37.7549	117.0000
37.7641	126.0000
37.7734	102.0000
37.7826	102.0000
37.7918	110.0000
37.8010	97.0000
37.8103	104.0000
37.8195	117.0000
37.8287	116.0000
37.8379	112.0000
37.8472	120.0000
37.8564	110.0000
37.8656	94.0000
37.8748	102.0000
37.8840	111.0000
37.8933	116.0000
37.9025	107.0000
37.9117	86.0000
37.9209	92.0000
37.9302	104.0000
37.9394	115.0000
37.9486	116.0000
37.9578	102.0000
37.9670	125.0000
37.9763	94.0000
37.9855	79.0000
37.9947	113.0000
38.0039	90.0000
38.0132	97.0000
38.0224	106.0000
38.0316	101.0000
38.0408	104.0000
38.0501	114.0000
38.0593	109.0000
38.0685	110.0000
38.0777	114.0000
38.0869	100.0000
38.0962	87.0000
38.1054	94.0000
38.1146	113.0000
38.1238	108.0000
38.1331	123.0000
38.1423	103.0000
38.1515	110.0000
38.1607	91.0000
38.1699	92.0000
38.1792	103.0000
38.1884	94.0000
38.1976	102.0000
38.2068	88.0000
38.2161	82.0000
38.2253	121.0000
38.2345	107.0000
38.2437	121.0000
38.2529	108.0000
38.2622	103.0000
38.2714	108.0000
38.2806	97.0000
38.2898	116.0000
38.2991	122.0000
38.3083	104.0000
38.3175	103.0000
38.3267	95.0000
38.3360	98.0000
38.3452	84.0000
38.3544	96.0000
38.3636	102.0000
38.3728	97.0000
38.3821	100.0000
38.3913	111.0000
38.4005	101.0000
38.4097	100.0000
38.4190	112.0000
38.4282	112.0000
38.4374	109.0000
38.4466	102.0000
38.4558	85.0000
38.4651	103.0000
38.4743	98.0000
38.4835	110.0000
38.4927	102.0000
38.5020	109.0000
38.5112	110.0000
38.5204	113.0000
38.5296	102.0000
38.5389	91.0000
38.5481	106.0000
38.5573	91.0000
38.5665	101.0000
38.5757	95.0000
38.5850	96.0000
38.5942	96.0000
38.6034	78.0000
38.6126	102.0000
38.6219	91.0000
38.6311	100.0000
38.6403	104.0000
38.6495	90.0000
38.6587	97.0000
38.6680	83.0000
38.6772	100.0000
38.6864	89.0000
38.6956	111.0000
38.7049	108.0000
38.7141	122.0000
38.7233	103.0000
38.7325	99.0000
38.7417	130.0000
38.7510	105.0000
38.7602	110.0000
38.7694	100.0000
38.7786	98.0000
38.7879	81.0000
38.7971	84.0000
38.8063	77.0000
38.8155	104.0000
38.8248	93.0000
38.8340	100.0000
38.8432	100.0000
38.8524	94.0000
38.8616	108.0000
38.8709	90.0000
38.8801	114.0000
38.8893	108.0000
38.8985	94.0000
38.9078	108.0000
38.9170	90.0000
38.9262	91.0000
38.9354	90.0000
38.9446	98.0000
38.9539	98.0000
38.9631	76.0000
38.9723	100.0000
38.9815	93.0000
38.9908	101.0000
39.0000	98.0000
39.0092	101.0000
39.0184	110.0000
39.0277	101.0000
39.0369	83.0000
39.0461	106.0000
39.0553	97.0000
39.0645	97.0000
39.0738	80.0000
39.0830	86.0000
39.0922	107.0000
39.1014	122.0000
39.1107	95.0000
39.1199	124.0000
39.1291	100.0000
39.1383	100.0000
39.1475	95.0000
39.1568	95.0000
39.1660	112.0000
39.1752	93.0000
39.1844	99.0000
39.1937	100.0000
39.2029	88.0000
39.2121	107.0000
39.2213	90.0000
39.2306	92.0000
39.2398	102.0000
39.2490	99.0000
39.2582	103.0000
39.2674	96.0000
39.2767	90.0000
39.2859	102.0000
39.2951	92.0000
39.3043	99.0000
39.3136	100.0000
39.3228	99.0000
39.3320	101.0000
39.3412	93.0000
39.3504	102.0000
39.3597	91.0000
39.3689	118.0000
39.3781	93.0000
39.3873	97.0000
39.3966	81.0000
39.4058	98.0000
39.4150	98.0000
39.4242	82.0000
39.4334	100.0000
39.4427	118.0000
39.4519	121.0000
39.4611	113.0000
39.4703	88.0000
39.4796	94.0000
39.4888	82.0000
39.4980	96.0000
39.5072	111.0000
39.5165	94.0000
39.5257	108.0000
39.5349	95.0000
39.5441	103.0000
39.5533	94.0000
39.5626	83.0000
39.5718	101.0000
39.5810	99.0000
39.5902	103.0000
39.5995	89.0000
39.6087	99.0000
39.6179	97.0000
39.6271	93.0000
39.6363	98.0000
39.6456	90.0000
39.6548	98.0000
39.6640	87.0000
39.6732	96.0000
39.6825	89.0000
39.6917	93.0000
39.7009	108.0000
39.7101	87.0000
39.7194	104.0000
39.7286	86.0000
39.7378	90.0000
39.7470	97.0000
39.7562	85.0000
39.7655	90.0000
39.7747	91.0000
39.7839	75.0000
39.7931	112.0000
39.8024	87.0000
39.8116	120.0000
39.8208	93.0000
39.8300	88.0000
39.8392	94.0000
39.8485	81.0000
39.8577	97.0000
39.8669	88.0000
39.8761	94.0000
39.8854	89.0000
39.8946	110.0000
39.9038	92.0000
39.9130	85.0000
39.9222	109.0000
39.9315	101.0000
39.9407	89.0000
39.9499	88.0000
39.9591	82.0000
39.9684	100.0000
39.9776	89.0000
39.9868	100.0000
39.9960	110.0000
40.0053	98.0000
40.0145	109.0000
40.0237	91.0000
40.0329	102.0000
40.0421	82.0000
40.0514	92.0000
40.0606	111.0000
40.0698	114.0000
40.0790	76.0000
40.0883	105.0000
40.0975	103.0000
40.1067	109.0000
40.1159	105.0000
40.1251	88.0000
40.1344	98.0000
40.1436	83.0000
40.1528	108.0000
40.1620	102.0000
40.1713	103.0000
40.1805	102.0000
40.1897	92.0000
40.1989	100.0000
40.2082	85.0000
40.2174	112.0000
40.2266	91.0000
40.2358	99.0000
40.2450	81.0000
40.2543	89.0000
40.2635	96.0000
40.2727	91.0000
40.2819	84.0000
40.2912	86.0000
40.3004	88.0000
40.3096	88.0000
40.3188	95.0000
40.3280	75.0000
40.3373	101.0000
40.3465	99.0000
40.3557	102.0000
40.3649	88.0000
40.3742	91.0000
40.3834	77.0000
40.3926	80.0000
40.4018	100.0000
40.4111	109.0000
40.4203	107.0000
40.4295	83.0000
40.4387	103.0000
40.4479	104.0000
40.4572	108.0000
40.4664	91.0000
40.4756	109.0000
40.4848	97.0000
40.4941	99.0000
40.5033	123.0000
40.5125	95.0000
40.5217	100.0000
40.5309	89.0000
40.5402	89.0000
40.5494	82.0000
40.5586	94.0000
40.5678	97.0000
40.5771	87.0000
40.5863	91.0000
40.5955	76.0000
40.6047	92.0000
40.6139	103.0000
40.6232	93.0000
40.6324	87.0000
40.6416	101.0000
40.6508	83.0000
40.6601	104.0000
40.6693	102.0000
40.6785	114.0000
40.6877	111.0000
40.6970	89.0000
40.7062	98.0000
40.7154	92.0000
40.7246	94.0000
40.7338	86.0000
40.7431	87.0000
40.7523	104.0000
40.7615	105.0000
40.7707	88.0000
40.7800	94.0000
40.7892	81.0000
40.7984	106.0000
40.8076	89.0000
40.8168	93.0000
40.8261	103.0000
40.8353	95.0000
40.8445	82.0000
40.8537	105.0000
40.8630	96.0000
40.8722	104.0000
40.8814	103.0000
40.8906	109.0000
40.8999	122.0000
40.9091	93.0000
40.9183	88.0000
40.9275	108.0000
40.9367	111.0000
40.9460	84.0000
40.9552	76.0000
40.9644	101.0000
40.9736	98.0000
40.9829	97.0000
40.9921	101.0000
41.0013	98.0000
41.0105	88.0000
41.0197	102.0000
41.0290	100.0000
41.0382	72.0000
41.0474	98.0000
41.0566	105.0000
41.0659	102.0000
41.0751	89.0000
41.0843	91.0000
41.0935	103.0000
41.1027	89.0000
41.1120	92.0000
41.1212	92.0000
41.1304	111.0000
41.1396	103.0000
41.1489	103.0000
41.1581	86.0000
41.1673	106.0000
41.1765	111.0000
41.1858	102.0000
41.1950	97.0000
41.2042	100.0000
41.2134	103.0000
41.2226	105.0000
41.2319	118.0000
41.2411	116.0000
41.2503	111.0000
41.2595	90.0000
41.2688	90.0000
41.2780	95.0000
41.2872	105.0000
41.2964	97.0000
41.3056	81.0000
41.3149	112.0000
41.3241	94.0000
41.3333	95.0000
41.3425	97.0000
41.3518	109.0000
41.3610	86.0000
41.3702	79.0000
41.3794	105.0000
41.3887	85.0000
41.3979	94.0000
41.4071	107.0000
41.4163	82.0000
41.4255	82.0000
41.4348	98.0000
41.4440	107.0000
41.4532	88.0000
41.4624	79.0000
41.4717	81.0000
41.4809	104.0000
41.4901	99.0000
41.4993	96.0000
41.5085	93.0000
41.5178	97.0000
41.5270	94.0000
41.5362	86.0000
41.5454	105.0000
41.5547	93.0000
41.5639	96.0000
41.5731	103.0000
41.5823	106.0000
41.5915	92.0000
41.6008	85.0000
41.6100	95.0000
41.6192	81.0000
41.6284	86.0000
41.6377	87.0000
41.6469	90.0000
41.6561	86.0000
41.6653	80.0000
41.6746	80.0000
41.6838	96.0000
41.6930	86.0000
41.7022	84.0000
41.7114	81.0000
41.7207	74.0000
41.7299	106.0000
41.7391	113.0000
41.7483	91.0000
41.7576	88.0000
41.7668	95.0000
41.7760	106.0000
41.7852	98.0000
41.7944	100.0000
41.8037	87.0000
41.8129	108.0000
41.8221	104.0000
41.8313	101.0000
41.8406	76.0000
41.8498	99.0000
41.8590	99.0000
41.8682	82.0000
41.8775	107.0000
41.8867	92.0000
41.8959	106.0000
41.9051	87.0000
41.9143	97.0000
41.9236	83.0000
41.9328	107.0000
41.9420	103.0000
41.9512	97.0000
41.9605	98.0000
41.9697	91.0000
41.9789	74.0000
41.9881	105.0000
41.9973	94.0000
42.0066	93.0000
42.0158	93.0000
42.0250	98.0000
42.0342	108.0000
42.0435	78.0000
42.0527	85.0000
42.0619	94.0000
42.0711	89.0000
42.0804	78.0000
42.0896	93.0000
42.0988	96.0000
42.1080	108.0000
42.1172	101.0000
42.1265	95.0000
42.1357	96.0000
42.1449	91.0000
42.1541	78.0000
42.1634	105.0000
42.1726	93.0000
42.1818	96.0000
42.1910	104.0000
42.2002	91.0000
42.2095	110.0000
42.2187	88.0000
42.2279	79.0000
42.2371	96.0000
42.2464	94.0000
42.2556	92.0000
42.2648	83.0000
42.2740	80.0000
42.2832	99.0000
42.2925	91.0000
42.3017	111.0000
42.3109	104.0000
42.3201	95.0000
42.3294	96.0000
42.3386	93.0000
42.3478	105.0000
42.3570	85.0000
42.3663	76.0000
42.3755	89.0000
42.3847	85.0000
42.3939	84.0000
42.4031	96.0000
42.4124	82.0000
42.4216	91.0000
42.4308	91.0000
42.4400	88.0000
42.4493	84.0000
42.4585	91.0000
42.4677	111.0000
42.4769	110.0000
42.4861	100.0000
42.4954	112.0000
42.5046	99.0000
42.5138	82.0000
42.5230	93.0000
42.5323	100.0000
42.5415	100.0000
42.5507	98.0000
42.5599	102.0000
42.5692	109.0000
42.5784	90.0000
42.5876	80.0000
42.5968	96.0000
42.6060	89.0000
42.6153	87.0000
42.6245	97.0000
42.6337	91.0000
42.6429	107.0000
42.6522	88.0000
42.6614	75.0000
42.6706	100.0000
42.6798	98.0000
42.6890	118.0000
42.6983	77.0000
42.7075	107.0000
42.7167	88.0000
42.7259	104.0000
42.7352	101.0000
42.7444	89.0000
42.7536	92.0000
42.7628	110.0000
42.7720	94.0000
42.7813	84.0000
42.7905	117.0000
42.7997	91.0000
42.8089	83.0000
42.8182	98.0000
42.8274	95.0000
42.8366	82.0000
42.8458	92.0000
42.8551	92.0000
42.8643	90.0000
42.8735	106.0000
42.8827	77.0000
42.8919	112.0000
42.9012	88.0000
42.9104	79.0000
42.9196	88.0000
42.9288	106.0000
42.9381	105.0000
42.9473	85.0000
42.9565	111.0000
42.9657	100.0000
42.9749	99.0000
42.9842	113.0000
42.9934	96.0000
43.0026	100.0000
43.0118	109.0000
43.0211	113.0000
43.0303	93.0000
43.0395	91.0000
43.0487	102.0000
43.0580	93.0000
43.0672	80.0000
43.0764	87.0000
43.0856	119.0000
43.0948	89.0000
43.1041	110.0000
43.1133	93.0000
43.1225	83.0000
43.1317	97.0000
43.1410	85.0000
43.1502	79.0000
43.1594	86.0000
43.1686	106.0000
43.1778	98.0000
43.1871	79.0000
43.1963	98.0000
43.2055	94.0000
43.2147	90.0000
43.2240	73.0000
43.2332	111.0000
43.2424	82.0000
43.2516	88.0000
43.2609	99.0000
43.2701	99.0000
43.2793	97.0000
43.2885	107.0000
43.2977	79.0000
43.3070	99.0000
43.3162	120.0000
43.3254	148.0000
43.3346	168.0000
43.3439	211.0000
43.3531	234.0000
43.3623	238.0000
43.3715	273.0000
43.3807	286.0000
43.3900	218.0000
43.3992	218.0000
43.4084	170.0000
43.4176	146.0000
43.4269	105.0000
43.4361	122.0000
43.4453	96.0000
43.4545	100.0000
43.4637	95.0000
43.4730	105.0000
43.4822	82.0000
43.4914	86.0000
43.5006	95.0000
43.5099	96.0000
43.5191	110.0000
43.5283	88.0000
43.5375	93.0000
43.5468	93.0000
43.5560	93.0000
43.5652	88.0000
43.5744	82.0000
43.5836	121.0000
43.5929	108.0000
43.6021	133.0000
43.6113	135.0000
43.6205	166.0000
43.6298	160.0000
43.6390	155.0000
43.6482	190.0000
43.6574	184.0000
43.6666	166.0000
43.6759	131.0000
43.6851	126.0000
43.6943	103.0000
43.7035	112.0000
43.7128	90.0000
43.7220	89.0000
43.7312	84.0000
43.7404	108.0000
43.7497	114.0000
43.7589	84.0000
43.7681	98.0000
43.7773	77.0000
43.7865	96.0000
43.7958	102.0000
43.8050	95.0000
43.8142	70.0000
43.8234	86.0000
43.8327	100.0000
43.8419	77.0000
43.8511	85.0000
43.8603	86.0000
43.8695	86.0000
43.8788	75.0000
43.8880	92.0000
43.8972	95.0000
43.9064	111.0000
43.9157	86.0000
43.9249	89.0000
43.9341	91.0000
43.9433	88.0000
43.9525	85.0000
43.9618	81.0000
43.9710	94.0000
43.9802	92.0000
43.9894	81.0000
43.9987	78.0000
44.0079	104.0000
44.0171	98.0000
44.0263	90.0000
44.0356	104.0000
44.0448	84.0000
44.0540	85.0000
44.0632	101.0000
44.0724	74.0000
44.0817	79.0000
44.0909	94.0000
44.1001	75.0000
44.1093	97.0000
44.1186	87.0000
44.1278	93.0000
44.1370	83.0000
44.1462	80.0000
44.1554	85.0000
44.1647	98.0000
44.1739	90.0000
44.1831	94.0000
44.1923	94.0000
44.2016	91.0000
44.2108	81.0000
44.2200	87.0000
44.2292	81.0000
44.2385	93.0000
44.2477	93.0000
44.2569	77.0000
44.2661	80.0000
44.2753	110.0000
44.2846	81.0000
44.2938	92.0000
44.3030	107.0000
44.3122	91.0000
44.3215	81.0000
44.3307	100.0000
44.3399	89.0000
44.3491	89.0000
44.3583	106.0000
44.3676	79.0000
44.3768	100.0000
44.3860	84.0000
44.3952	84.0000
44.4045	80.0000
44.4137	85.0000
44.4229	92.0000
44.4321	96.0000
44.4414	106.0000
44.4506	97.0000
44.4598	87.0000
44.4690	72.0000
44.4782	67.0000
44.4875	86.0000
44.4967	103.0000
44.5059	97.0000
44.5151	72.0000
44.5244	86.0000
44.5336	93.0000
44.5428	87.0000
44.5520	102.0000
44.5612	97.0000
44.5705	95.0000
44.5797	85.0000
44.5889	94.0000
44.5981	96.0000
44.6074	88.0000
44.6166	87.0000
44.6258	89.0000
44.6350	107.0000
44.6442	77.0000
44.6535	88.0000
44.6627	95.0000
44.6719	72.0000
44.6811	76.0000
44.6904	88.0000
44.6996	83.0000
44.7088	82.0000
44.7180	89.0000
44.7273	86.0000
44.7365	69.0000
44.7457	93.0000
44.7549	83.0000
44.7641	94.0000
44.7734	100.0000
44.7826	84.0000
44.7918	84.0000
44.8010	71.0000
44.8103	78.0000
44.8195	95.0000
44.8287	85.0000
44.8379	86.0000
44.8471	103.0000
44.8564	85.0000
44.8656	88.0000
44.8748	80.0000
44.8840	74.0000
44.8933	80.0000
44.9025	85.0000
44.9117	82.0000
44.9209	80.0000
44.9302	85.0000
44.9394	93.0000
44.9486	92.0000
44.9578	90.0000
44.9670	98.0000
44.9763	101.0000
44.9855	83.0000
44.9947	99.0000
45.0039	94.0000
45.0132	92.0000
45.0224	88.0000
45.0316	72.0000
45.0408	70.0000
45.0500	79.0000
45.0593	81.0000
45.0685	80.0000
45.0777	86.0000
45.0869	78.0000
45.0962	79.0000
45.1054	76.0000
45.1146	91.0000
45.1238	80.0000
45.1330	86.0000
45.1423	78.0000
45.1515	76.0000
45.1607	87.0000
45.1699	74.0000
45.1792	81.0000
45.1884	85.0000
45.1976	88.0000
45.2068	76.0000
45.2161	91.0000
45.2253	76.0000
45.2345	72.0000
45.2437	108.0000
45.2529	82.0000
45.2622	95.0000
45.2714	85.0000
45.2806	86.0000
45.2898	75.0000
45.2991	90.0000
45.3083	95.0000
45.3175	93.0000
45.3267	94.0000
45.3359	88.0000
45.3452	81.0000
45.3544	71.0000
45.3636	97.0000
45.3728	95.0000
45.3821	82.0000
45.3913	73.0000
45.4005	85.0000
45.4097	76.0000
45.4190	79.0000
45.4282	69.0000
45.4374	81.0000
45.4466	83.0000
45.4558	83.0000
45.4651	73.0000
45.4743	82.0000
45.4835	69.0000
45.4927	98.0000
45.5020	97.0000
45.5112	90.0000
45.5204	99.0000
45.5296	89.0000
45.5388	63.0000
45.5481	84.0000
45.5573	73.0000
45.5665	78.0000
45.5757	79.0000
45.5850	76.0000
45.5942	96.0000
45.6034	84.0000
45.6126	77.0000
45.6219	75.0000
45.6311	87.0000
45.6403	96.0000
45.6495	78.0000
45.6587	82.0000
45.6680	87.0000
45.6772	86.0000
45.6864	85.0000
45.6956	80.0000
45.7049	72.0000
45.7141	82.0000
45.7233	84.0000
45.7325	81.0000
45.7417	74.0000
45.7510	88.0000
45.7602	84.0000
45.7694	80.0000
45.7786	84.0000
45.7879	93.0000
45.7971	75.0000
45.8063	93.0000
45.8155	87.0000
45.8247	80.0000
45.8340	97.0000
45.8432	84.0000
45.8524	82.0000
45.8616	92.0000
45.8709	84.0000
45.8801	87.0000
45.8893	69.0000
45.8985	76.0000
45.9078	74.0000
45.9170	80.0000
45.9262	80.0000
45.9354	70.0000
45.9446	71.0000
45.9539	80.0000
45.9631	75.0000
45.9723	81.0000
45.9815	99.0000
45.9908	75.0000
46.0000	71.0000
46.0092	81.0000
46.0184	78.0000
46.0276	67.0000
46.0369	86.0000
46.0461	76.0000
46.0553	78.0000
46.0645	103.0000
46.0738	77.0000
46.0830	60.0000
46.0922	83.0000
46.1014	101.0000
46.1107	75.0000
46.1199	68.0000
46.1291	77.0000
46.1383	78.0000
46.1475	81.0000
46.1568	85.0000
46.1660	85.0000
46.1752	88.0000
46.1844	65.0000
46.1937	62.0000
46.2029	82.0000
46.2121	78.0000
46.2213	76.0000
46.2305	88.0000
46.2398	82.0000
46.2490	76.0000
46.2582	76.0000
46.2674	93.0000
46.2767	96.0000
46.2859	82.0000
46.2951	87.0000
46.3043	67.0000
46.3135	88.0000
46.3228	68.0000
46.3320	73.0000
46.3412	84.0000
46.3504	71.0000
46.3597	67.0000
46.3689	76.0000
46.3781	80.0000
46.3873	79.0000
46.3966	77.0000
46.4058	72.0000
46.4150	77.0000
46.4242	82.0000
46.4334	98.0000
46.4427	71.0000
46.4519	81.0000
46.4611	73.0000
46.4703	72.0000
46.4796	71.0000
46.4888	82.0000
46.4980	81.0000
46.5072	87.0000
46.5164	88.0000
46.5257	83.0000
46.5349	69.0000
46.5441	91.0000
46.5533	66.0000
46.5626	78.0000
46.5718	85.0000
46.5810	78.0000
46.5902	88.0000
46.5995	77.0000
46.6087	79.0000
46.6179	89.0000
46.6271	76.0000
46.6363	66.0000
46.6456	81.0000
46.6548	78.0000
46.6640	85.0000
46.6732	76.0000
46.6825	82.0000
46.6917	74.0000
46.7009	76.0000
46.7101	80.0000
46.7193	86.0000
46.7286	76.0000
46.7378	83.0000
46.7470	80.0000
46.7562	74.0000
46.7655	60.0000
46.7747	77.0000
46.7839	72.0000
46.7931	73.0000
46.8024	59.0000
46.8116	91.0000
46.8208	91.0000
46.8300	69.0000
46.8392	80.0000
46.8485	84.0000
46.8577	92.0000
46.8669	79.0000
46.8761	81.0000
46.8854	80.0000
46.8946	96.0000
46.9038	75.0000
46.9130	89.0000
46.9222	70.0000
46.9315	78.0000
46.9407	85.0000
46.9499	79.0000
46.9591	86.0000
46.9684	81.0000
46.9776	82.0000
46.9868	79.0000
46.9960	66.0000
47.0052	64.0000
47.0145	85.0000
47.0237	82.0000
47.0329	80.0000
47.0421	99.0000
47.0514	79.0000
47.0606	87.0000
47.0698	68.0000
47.0790	69.0000
47.0883	82.0000
47.0975	80.0000
47.1067	71.0000
47.1159	73.0000
47.1251	79.0000
47.1344	77.0000
47.1436	82.0000
47.1528	66.0000
47.1620	73.0000
47.1713	71.0000
47.1805	88.0000
47.1897	71.0000
47.1989	88.0000
47.2081	65.0000
47.2174	73.0000
47.2266	80.0000
47.2358	76.0000
47.2450	72.0000
47.2543	85.0000
47.2635	85.0000
47.2727	72.0000
47.2819	85.0000
47.2912	58.0000
47.3004	60.0000
47.3096	68.0000
47.3188	90.0000
47.3280	64.0000
47.3373	67.0000
47.3465	77.0000
47.3557	85.0000
47.3649	68.0000
47.3742	64.0000
47.3834	73.0000
47.3926	85.0000
47.4018	61.0000
47.4110	77.0000
47.4203	83.0000
47.4295	61.0000
47.4387	58.0000
47.4479	83.0000
47.4572	84.0000
47.4664	68.0000
47.4756	65.0000
47.4848	73.0000
47.4940	68.0000
47.5033	68.0000
47.5125	71.0000
47.5217	78.0000
47.5309	79.0000
47.5402	71.0000
47.5494	75.0000
47.5586	64.0000
47.5678	68.0000
47.5771	61.0000
47.5863	66.0000
47.5955	75.0000
47.6047	59.0000
47.6139	65.0000
47.6232	84.0000
47.6324	71.0000
47.6416	71.0000
47.6508	69.0000
47.6601	94.0000
47.6693	59.0000
47.6785	61.0000
47.6877	66.0000
47.6969	69.0000
47.7062	75.0000
47.7154	54.0000
47.7246	68.0000
47.7338	84.0000
47.7431	65.0000
47.7523	72.0000
47.7615	78.0000
47.7707	66.0000
47.7800	75.0000
47.7892	74.0000
47.7984	79.0000
47.8076	65.0000
47.8168	100.0000
47.8261	63.0000
47.8353	74.0000
47.8445	80.0000
47.8537	73.0000
47.8630	66.0000
47.8722	76.0000
47.8814	76.0000
47.8906	73.0000
47.8998	68.0000
47.9091	68.0000
47.9183	74.0000
47.9275	73.0000
47.9367	79.0000
47.9460	72.0000
47.9552	72.0000
47.9644	73.0000
47.9736	72.0000
47.9829	57.0000
47.9921	65.0000
48.0013	62.0000
