11.0000	578.0000
11.0092	612.0000
11.0184	631.0000
11.0277	569.0000
11.0369	629.0000
11.0461	611.0000
11.0553	630.0000
11.0646	595.0000
11.0738	599.0000
11.0830	643.0000
11.0922	628.0000
11.1014	631.0000
11.1107	588.0000
11.1199	593.0000
11.1291	586.0000
11.1383	623.0000
11.1476	563.0000
11.1568	597.0000
11.1660	595.0000
11.1752	612.0000
11.1845	542.0000
11.1937	579.0000
11.2029	604.0000
11.2121	580.0000
11.2213	581.0000
11.2306	570.0000
11.2398	562.0000
11.2490	581.0000
11.2582	573.0000
11.2675	564.0000
11.2767	606.0000
11.2859	620.0000
11.2951	578.0000
11.3043	588.0000
11.3136	561.0000
11.3228	544.0000
11.3320	570.0000
11.3412	553.0000
11.3505	581.0000
11.3597	555.0000
11.3689	544.0000
11.3781	561.0000
11.3874	529.0000
11.3966	564.0000
11.4058	553.0000
11.4150	518.0000
11.4242	601.0000
11.4335	555.0000
11.4427	566.0000
11.4519	496.0000
11.4611	526.0000
11.4704	555.0000
11.4796	522.0000
11.4888	505.0000
11.4980	527.0000
11.5072	498.0000
11.5165	516.0000
11.5257	502.0000
11.5349	523.0000
11.5441	554.0000
11.5534	507.0000
11.5626	516.0000
11.5718	549.0000
11.5810	541.0000
11.5902	503.0000
11.5995	464.0000
11.6087	512.0000
11.6179	510.0000
11.6271	476.0000
11.6364	499.0000
11.6456	501.0000
11.6548	531.0000
11.6640	520.0000
11.6733	495.0000
11.6825	470.0000
11.6917	519.0000
11.7009	520.0000
11.7101	483.0000
11.7194	515.0000
11.7286	512.0000
11.7378	519.0000
11.7470	478.0000
11.7563	510.0000
11.7655	502.0000
11.7747	504.0000
11.7839	523.0000
11.7931	485.0000
11.8024	463.0000
11.8116	442.0000
11.8208	480.0000
11.8300	467.0000
11.8393	443.0000
11.8485	451.0000
11.8577	467.0000
11.8669	444.0000
11.8762	457.0000
11.8854	473.0000
11.8946	476.0000
11.9038	435.0000
11.9130	474.0000
11.9223	510.0000
11.9315	459.0000
11.9407	458.0000
11.9499	452.0000
11.9592	483.0000
11.9684	424.0000
11.9776	445.0000
11.9868	445.0000
11.9960	430.0000
12.0053	464.0000
12.0145	471.0000
12.0237	463.0000
12.0329	482.0000
12.0422	453.0000
12.0514	425.0000
12.0606	422.0000
12.0698	471.0000
12.0791	488.0000
12.0883	462.0000
12.0975	461.0000
12.1067	416.0000
12.1159	442.0000
12.1252	451.0000
12.1344	450.0000
12.1436	444.0000
12.1528	407.0000
12.1621	408.0000
12.1713	444.0000
12.1805	438.0000
12.1897	458.0000
12.1989	422.0000
12.2082	399.0000
12.2174	445.0000
12.2266	463.0000
12.2358	471.0000
12.2451	424.0000
12.2543	424.0000
12.2635	464.0000
12.2727	441.0000
12.2819	429.0000
12.2912	441.0000
12.3004	446.0000
12.3096	410.0000
12.3188	429.0000
12.3281	427.0000
12.3373	414.0000
12.3465	439.0000
12.3557	406.0000
12.3650	401.0000
12.3742	417.0000
12.3834	400.0000
12.3926	407.0000
12.4018	406.0000
12.4111	392.0000
12.4203	431.0000
12.4295	429.0000
12.4387	369.0000
12.4480	394.0000
12.4572	399.0000
12.4664	428.0000
12.4756	404.0000
12.4848	381.0000
12.4941	392.0000
12.5033	411.0000
12.5125	388.0000
12.5217	433.0000
12.5310	357.0000
12.5402	397.0000
12.5494	364.0000
12.5586	376.0000
12.5679	391.0000
12.5771	385.0000
12.5863	371.0000
12.5955	360.0000
12.6047	400.0000
12.6140	382.0000
12.6232	398.0000
12.6324	368.0000
12.6416	418.0000
12.6509	408.0000
12.6601	383.0000
12.6693	407.0000
12.6785	403.0000
12.6877	391.0000
12.6970	357.0000
12.7062	370.0000
12.7154	378.0000
12.7246	371.0000
12.7339	369.0000
12.7431	350.0000
12.7523	382.0000
12.7615	377.0000
12.7707	391.0000
12.7800	372.0000
12.7892	383.0000
12.7984	382.0000
12.8076	374.0000
12.8169	356.0000
12.8261	377.0000
12.8353	368.0000
12.8445	364.0000
12.8538	362.0000
12.8630	349.0000
12.8722	370.0000
12.8814	362.0000
12.8906	356.0000
12.8999	364.0000
12.9091	363.0000
12.9183	352.0000
12.9275	358.0000
12.9368	368.0000
12.9460	357.0000
12.9552	373.0000
12.9644	417.0000
12.9736	370.0000
12.9829	379.0000
12.9921	366.0000
13.0013	352.0000
13.0105	344.0000
13.0198	357.0000
13.0290	376.0000
13.0382	363.0000
13.0474	347.0000
13.0567	330.0000
13.0659	330.0000
13.0751	350.0000
13.0843	354.0000
13.0935	320.0000
13.1028	328.0000
13.1120	381.0000
13.1212	342.0000
13.1304	355.0000
13.1397	347.0000
13.1489	313.0000
13.1581	340.0000
13.1673	334.0000
13.1765	353.0000
13.1858	359.0000
13.1950	326.0000
13.2042	314.0000
13.2134	343.0000
13.2227	351.0000
13.2319	351.0000
13.2411	338.0000
13.2503	307.0000
13.2596	360.0000
13.2688	319.0000
13.2780	326.0000
13.2872	331.0000
13.2964	315.0000
13.3057	338.0000
13.3149	348.0000
13.3241	319.0000
13.3333	295.0000
13.3426	310.0000
13.3518	342.0000
13.3610	315.0000
13.3702	352.0000
13.3794	359.0000
13.3887	362.0000
13.3979	303.0000
13.4071	333.0000
13.4163	296.0000
13.4256	338.0000
13.4348	322.0000
13.4440	332.0000
13.4532	285.0000
13.4624	321.0000
13.4717	311.0000
13.4809	315.0000
13.4901	307.0000
13.4993	309.0000
13.5086	320.0000
13.5178	338.0000
13.5270	325.0000
13.5362	328.0000
13.5455	308.0000
13.5547	319.0000
13.5639	296.0000
13.5731	306.0000
13.5823	329.0000
13.5916	307.0000
13.6008	303.0000
13.6100	311.0000
13.6192	316.0000
13.6285	300.0000
13.6377	315.0000
13.6469	303.0000
13.6561	315.0000
13.6653	304.0000
13.6746	296.0000
13.6838	309.0000
13.6930	314.0000
13.7022	304.0000
13.7115	298.0000
13.7207	320.0000
13.7299	290.0000
13.7391	321.0000
13.7484	289.0000
13.7576	325.0000
13.7668	294.0000
13.7760	295.0000
13.7852	299.0000
13.7945	301.0000
13.8037	271.0000
13.8129	322.0000
13.8221	289.0000
13.8314	311.0000
13.8406	321.0000
13.8498	299.0000
13.8590	332.0000
13.8682	299.0000
13.8775	294.0000
13.8867	273.0000
13.8959	306.0000
13.9051	283.0000
13.9144	290.0000
13.9236	325.0000
13.9328	312.0000
13.9420	282.0000
13.9512	287.0000
13.9605	308.0000
13.9697	294.0000
13.9789	331.0000
13.9881	293.0000
13.9974	290.0000
14.0066	276.0000
14.0158	304.0000
14.0250	289.0000
14.0343	268.0000
14.0435	301.0000
14.0527	268.0000
14.0619	296.0000
14.0711	336.0000
14.0804	302.0000
14.0896	304.0000
14.0988	246.0000
14.1080	278.0000
14.1173	306.0000
14.1265	287.0000
14.1357	315.0000
14.1449	288.0000
14.1541	300.0000
14.1634	335.0000
14.1726	272.0000
14.1818	298.0000
14.1910	287.0000
14.2003	302.0000
14.2095	279.0000
14.2187	293.0000
14.2279	295.0000
14.2372	258.0000
14.2464	307.0000
14.2556	283.0000
14.2648	269.0000
14.2740	278.0000
14.2833	325.0000
14.2925	304.0000
14.3017	296.0000
14.3109	254.0000
14.3202	285.0000
14.3294	293.0000
14.3386	290.0000
14.3478	254.0000
14.3570	292.0000
14.3663	293.0000
14.3755	286.0000
14.3847	263.0000
14.3939	280.0000
14.4032	310.0000
14.4124	279.0000
14.4216	265.0000
14.4308	276.0000
14.4401	253.0000
14.4493	285.0000
14.4585	263.0000
14.4677	271.0000
14.4769	294.0000
14.4862	247.0000
14.4954	282.0000
14.5046	253.0000
14.5138	269.0000
14.5231	255.0000
14.5323	283.0000
14.5415	291.0000
14.5507	287.0000
14.5599	235.0000
14.5692	295.0000
14.5784	268.0000
14.5876	248.0000
14.5968	239.0000
14.6061	286.0000
14.6153	295.0000
14.6245	289.0000
14.6337	263.0000
14.6429	297.0000
14.6522	301.0000
14.6614	259.0000
14.6706	286.0000
14.6798	240.0000
14.6891	288.0000
14.6983	294.0000
14.7075	272.0000
14.7167	252.0000
14.7260	253.0000
14.7352	247.0000
14.7444	275.0000
14.7536	245.0000
14.7628	233.0000
14.7721	270.0000
14.7813	266.0000
14.7905	257.0000
14.7997	255.0000
14.8090	273.0000
14.8182	248.0000
14.8274	243.0000
14.8366	275.0000
14.8458	252.0000
14.8551	260.0000
14.8643	248.0000
14.8735	247.0000
14.8827	251.0000
14.8920	242.0000
14.9012	258.0000
14.9104	249.0000
14.9196	260.0000
14.9289	256.0000
14.9381	260.0000
14.9473	241.0000
14.9565	281.0000
14.9657	262.0000
14.9750	245.0000
14.9842	259.0000
14.9934	261.0000
15.0026	253.0000
15.0119	252.0000
15.0211	237.0000
15.0303	267.0000
15.0395	247.0000
15.0487	259.0000
15.0580	244.0000
15.0672	262.0000
15.0764	273.0000
15.0856	255.0000
15.0949	260.0000
15.1041	244.0000
15.1133	265.0000
15.1225	274.0000
15.1317	276.0000
15.1410	242.0000
15.1502	232.0000
15.1594	237.0000
15.1686	235.0000
15.1779	247.0000
15.1871	263.0000
15.1963	250.0000
15.2055	233.0000
15.2148	229.0000
15.2240	234.0000
15.2332	260.0000
15.2424	248.0000
15.2516	236.0000
15.2609	250.0000
15.2701	252.0000
15.2793	249.0000
15.2885	240.0000
15.2978	256.0000
15.3070	239.0000
15.3162	226.0000
15.3254	229.0000
15.3346	243.0000
15.3439	238.0000
15.3531	250.0000
15.3623	225.0000
15.3715	223.0000
15.3808	249.0000
15.3900	236.0000
15.3992	251.0000
15.4084	251.0000
15.4177	218.0000
15.4269	249.0000
15.4361	246.0000
15.4453	225.0000
15.4545	237.0000
15.4638	272.0000
15.4730	251.0000
15.4822	254.0000
15.4914	247.0000
15.5007	229.0000
15.5099	250.0000
15.5191	230.0000
15.5283	247.0000
15.5375	249.0000
15.5468	237.0000
15.5560	259.0000
15.5652	219.0000
15.5744	237.0000
15.5837	283.0000
15.5929	236.0000
15.6021	245.0000
15.6113	237.0000
15.6206	237.0000
15.6298	256.0000
15.6390	267.0000
15.6482	255.0000
15.6574	234.0000
15.6667	235.0000
15.6759	241.0000
15.6851	239.0000
15.6943	248.0000
15.7036	229.0000
15.7128	245.0000
15.7220	236.0000
15.7312	248.0000
15.7404	221.0000
15.7497	238.0000
15.7589	215.0000
15.7681	207.0000
15.7773	218.0000
15.7866	235.0000
15.7958	238.0000
15.8050	242.0000
15.8142	246.0000
15.8234	233.0000
15.8327	245.0000
15.8419	208.0000
15.8511	223.0000
15.8603	207.0000
15.8696	233.0000
15.8788	231.0000
15.8880	211.0000
15.8972	226.0000
15.9065	235.0000
15.9157	215.0000
15.9249	210.0000
15.9341	208.0000
15.9433	253.0000
15.9526	228.0000
15.9618	219.0000
15.9710	242.0000
15.9802	245.0000
15.9895	204.0000
15.9987	222.0000
16.0079	228.0000
16.0171	229.0000
16.0263	211.0000
16.0356	205.0000
16.0448	224.0000
16.0540	231.0000
16.0632	222.0000
16.0725	205.0000
16.0817	227.0000
16.0909	222.0000
16.1001	206.0000
16.1094	232.0000
16.1186	225.0000
16.1278	214.0000
16.1370	235.0000
16.1462	218.0000
16.1555	204.0000
16.1647	230.0000
16.1739	231.0000
16.1831	194.0000
16.1924	212.0000
16.2016	197.0000
16.2108	222.0000
16.2200	212.0000
16.2292	224.0000
16.2385	212.0000
16.2477	213.0000
16.2569	229.0000
16.2661	221.0000
16.2754	219.0000
16.2846	222.0000
16.2938	223.0000
16.3030	210.0000
16.3122	198.0000
16.3215	231.0000
16.3307	204.0000
16.3399	216.0000
16.3491	233.0000
16.3584	225.0000
16.3676	225.0000
16.3768	216.0000
16.3860	209.0000
16.3953	204.0000
16.4045	207.0000
16.4137	207.0000
16.4229	200.0000
16.4321	231.0000
16.4414	220.0000
16.4506	232.0000
16.4598	214.0000
16.4690	220.0000
16.4783	217.0000
16.4875	221.0000
16.4967	191.0000
16.5059	218.0000
16.5151	210.0000
16.5244	203.0000
16.5336	228.0000
16.5428	216.0000
16.5520	207.0000
16.5613	220.0000
16.5705	223.0000
16.5797	200.0000
16.5889	218.0000
16.5982	203.0000
16.6074	213.0000
16.6166	191.0000
16.6258	204.0000
16.6350	208.0000
16.6443	172.0000
16.6535	209.0000
16.6627	244.0000
16.6719	211.0000
16.6812	217.0000
16.6904	227.0000
16.6996	194.0000
16.7088	194.0000
16.7180	185.0000
16.7273	214.0000
16.7365	197.0000
16.7457	219.0000
16.7549	206.0000
16.7642	206.0000
16.7734	190.0000
16.7826	195.0000
16.7918	197.0000
16.8011	233.0000
16.8103	185.0000
16.8195	218.0000
16.8287	181.0000
16.8379	187.0000
16.8472	186.0000
16.8564	197.0000
16.8656	197.0000
16.8748	193.0000
16.8841	188.0000
16.8933	223.0000
16.9025	177.0000
16.9117	220.0000
16.9209	198.0000
16.9302	201.0000
16.9394	181.0000
16.9486	186.0000
16.9578	192.0000
16.9671	204.0000
16.9763	190.0000
16.9855	204.0000
16.9947	176.0000
17.0039	193.0000
17.0132	193.0000
17.0224	212.0000
17.0316	212.0000
17.0408	196.0000
17.0501	211.0000
17.0593	179.0000
17.0685	207.0000
17.0777	200.0000
17.0870	168.0000
17.0962	179.0000
17.1054	222.0000
17.1146	193.0000
17.1238	186.0000
17.1331	215.0000
17.1423	204.0000
17.1515	180.0000
17.1607	193.0000
17.1700	219.0000
17.1792	207.0000
17.1884	196.0000
17.1976	184.0000
17.2068	185.0000
17.2161	192.0000
17.2253	170.0000
17.2345	187.0000
17.2437	178.0000
17.2530	175.0000
17.2622	174.0000
17.2714	199.0000
17.2806	174.0000
17.2899	174.0000
17.2991	175.0000
17.3083	198.0000
17.3175	198.0000
17.3267	199.0000
17.3360	195.0000
17.3452	180.0000
17.3544	176.0000
17.3636	184.0000
17.3729	158.0000
17.3821	200.0000
17.3913	173.0000
17.4005	171.0000
17.4097	170.0000
17.4190	196.0000
17.4282	167.0000
17.4374	185.0000
17.4466	191.0000
17.4559	173.0000
17.4651	185.0000
17.4743	192.0000
17.4835	173.0000
17.4927	210.0000
17.5020	164.0000
17.5112	179.0000
17.5204	201.0000
17.5296	169.0000
17.5389	178.0000
17.5481	172.0000
17.5573	171.0000
17.5665	184.0000
17.5758	187.0000
17.5850	210.0000
17.5942	188.0000
17.6034	187.0000
17.6126	171.0000
17.6219	171.0000
17.6311	166.0000
17.6403	189.0000
17.6495	200.0000
17.6588	178.0000
17.6680	195.0000
17.6772	172.0000
17.6864	171.0000
17.6956	181.0000
17.7049	172.0000
17.7141	191.0000
17.7233	173.0000
17.7325	164.0000
17.7418	211.0000
17.7510	173.0000
17.7602	175.0000
17.7694	196.0000
17.7787	176.0000
17.7879	184.0000
17.7971	195.0000
17.8063	176.0000
17.8155	163.0000
17.8248	171.0000
17.8340	163.0000
17.8432	160.0000
17.8524	163.0000
17.8617	183.0000
17.8709	187.0000
17.8801	175.0000
17.8893	176.0000
17.8985	199.0000
17.9078	179.0000
17.9170	179.0000
17.9262	190.0000
17.9354	161.0000
17.9447	162.0000
17.9539	170.0000
17.9631	154.0000
17.9723	160.0000
17.9816	178.0000
17.9908	159.0000
18.0000	162.0000
18.0092	159.0000
18.0184	163.0000
18.0277	175.0000
18.0369	167.0000
18.0461	179.0000
18.0553	185.0000
18.0646	158.0000
18.0738	170.0000
18.0830	156.0000
18.0922	144.0000
18.1014	199.0000
18.1107	172.0000
18.1199	190.0000
18.1291	179.0000
18.1383	161.0000
18.1476	165.0000
18.1568	149.0000
18.1660	170.0000
18.1752	173.0000
18.1844	171.0000
18.1937	147.0000
18.2029	170.0000
18.2121	169.0000
18.2213	157.0000
18.2306	172.0000
18.2398	155.0000
18.2490	161.0000
18.2582	163.0000
18.2675	173.0000
18.2767	165.0000
18.2859	150.0000
18.2951	180.0000
18.3043	180.0000
18.3136	185.0000
18.3228	173.0000
18.3320	166.0000
18.3412	163.0000
18.3505	199.0000
18.3597	171.0000
18.3689	177.0000
18.3781	159.0000
18.3873	167.0000
18.3966	163.0000
18.4058	158.0000
18.4150	173.0000
18.4242	163.0000
18.4335	163.0000
18.4427	160.0000
18.4519	158.0000
18.4611	168.0000
18.4704	182.0000
18.4796	189.0000
18.4888	173.0000
18.4980	168.0000
18.5072	163.0000
18.5165	169.0000
18.5257	152.0000
18.5349	185.0000
18.5441	176.0000
18.5534	181.0000
18.5626	166.0000
18.5718	146.0000
18.5810	173.0000
18.5902	178.0000
18.5995	171.0000
18.6087	184.0000
18.6179	177.0000
18.6271	168.0000
18.6364	166.0000
18.6456	169.0000
18.6548	152.0000
18.6640	175.0000
18.6732	152.0000
18.6825	216.0000
18.6917	176.0000
18.7009	161.0000
18.7101	177.0000
18.7194	168.0000
18.7286	189.0000
18.7378	169.0000
18.7470	184.0000
18.7563	191.0000
18.7655	170.0000
18.7747	167.0000
18.7839	180.0000
18.7931	152.0000
18.8024	165.0000
18.8116	186.0000
18.8208	177.0000
18.8300	153.0000
18.8393	174.0000
18.8485	173.0000
18.8577	182.0000
18.8669	166.0000
18.8761	163.0000
18.8854	149.0000
18.8946	153.0000
18.9038	169.0000
18.9130	174.0000
18.9223	156.0000
18.9315	186.0000
18.9407	134.0000
18.9499	168.0000
18.9592	171.0000
18.9684	166.0000
18.9776	151.0000
18.9868	174.0000
18.9960	167.0000
19.0053	178.0000
19.0145	170.0000
19.0237	159.0000
19.0329	176.0000
19.0422	167.0000
19.0514	178.0000
19.0606	169.0000
19.0698	182.0000
19.0790	166.0000
19.0883	185.0000
19.0975	171.0000
19.1067	187.0000
19.1159	132.0000
19.1252	176.0000
19.1344	166.0000
19.1436	182.0000
19.1528	188.0000
19.1621	165.0000
19.1713	162.0000
19.1805	192.0000
19.1897	172.0000
19.1989	168.0000
19.2082	180.0000
19.2174	145.0000
19.2266	154.0000
19.2358	181.0000
19.2451	138.0000
19.2543	187.0000
19.2635	171.0000
19.2727	180.0000
19.2819	192.0000
19.2912	164.0000
19.3004	175.0000
19.3096	192.0000
19.3188	186.0000
19.3281	175.0000
19.3373	181.0000
19.3465	179.0000
19.3557	177.0000
19.3649	176.0000
19.3742	184.0000
19.3834	178.0000
19.3926	169.0000
19.4018	181.0000
19.4111	162.0000
19.4203	165.0000
19.4295	179.0000
19.4387	137.0000
19.4480	164.0000
19.4572	179.0000
19.4664	183.0000
19.4756	183.0000
19.4848	187.0000
19.4941	153.0000
19.5033	176.0000
19.5125	146.0000
19.5217	179.0000
19.5310	160.0000
19.5402	171.0000
19.5494	156.0000
19.5586	166.0000
19.5678	181.0000
19.5771	160.0000
19.5863	179.0000
19.5955	163.0000
19.6047	174.0000
19.6140	170.0000
19.6232	161.0000
19.6324	188.0000
19.6416	147.0000
19.6509	160.0000
19.6601	165.0000
19.6693	160.0000
19.6785	175.0000
19.6877	193.0000
19.6970	177.0000
19.7062	182.0000
19.7154	148.0000
19.7246	203.0000
19.7339	174.0000
19.7431	200.0000
19.7523	189.0000
19.7615	190.0000
19.7707	178.0000
19.7800	167.0000
19.7892	167.0000
19.7984	191.0000
19.8076	168.0000
19.8169	169.0000
19.8261	185.0000
19.8353	162.0000
19.8445	172.0000
19.8537	175.0000
19.8630	163.0000
19.8722	181.0000
19.8814	189.0000
19.8906	186.0000
19.8999	160.0000
19.9091	156.0000
19.9183	186.0000
19.9275	169.0000
19.9368	163.0000
19.9460	161.0000
19.9552	168.0000
19.9644	188.0000
19.9736	163.0000
19.9829	167.0000
19.9921	208.0000
20.0013	163.0000
20.0105	196.0000
20.0198	197.0000
20.0290	164.0000
20.0382	157.0000
20.0474	186.0000
20.0566	161.0000
20.0659	180.0000
20.0751	149.0000
20.0843	215.0000
20.0935	180.0000
20.1028	176.0000
20.1120	180.0000
20.1212	174.0000
20.1304	184.0000
20.1397	193.0000
20.1489	165.0000
20.1581	170.0000
20.1673	168.0000
20.1765	166.0000
20.1858	150.0000
20.1950	184.0000
20.2042	173.0000
20.2134	176.0000
20.2227	157.0000
20.2319	182.0000
20.2411	181.0000
20.2503	175.0000
20.2595	189.0000
20.2688	163.0000
20.2780	177.0000
20.2872	184.0000
20.2964	190.0000
20.3057	177.0000
20.3149	158.0000
20.3241	165.0000
20.3333	162.0000
20.3426	177.0000
20.3518	166.0000
20.3610	187.0000
20.3702	195.0000
20.3794	184.0000
20.3887	168.0000
20.3979	189.0000
20.4071	183.0000
20.4163	181.0000
20.4256	153.0000
20.4348	201.0000
20.4440	186.0000
20.4532	166.0000
20.4624	184.0000
20.4717	198.0000
20.4809	192.0000
20.4901	135.0000
20.4993	154.0000
20.5086	156.0000
20.5178	186.0000
20.5270	167.0000
20.5362	195.0000
20.5454	183.0000
20.5547	176.0000
20.5639	163.0000
20.5731	176.0000
20.5823	194.0000
20.5916	173.0000
20.6008	177.0000
20.6100	162.0000
20.6192	181.0000
20.6285	199.0000
20.6377	204.0000
20.6469	201.0000
20.6561	163.0000
20.6653	187.0000
20.6746	195.0000
20.6838	173.0000
20.6930	207.0000
20.7022	177.0000
20.7115	199.0000
20.7207	181.0000
20.7299	177.0000
20.7391	175.0000
20.7483	179.0000
20.7576	185.0000
20.7668	198.0000
20.7760	164.0000
20.7852	162.0000
20.7945	191.0000
20.8037	189.0000
20.8129	186.0000
20.8221	170.0000
20.8314	185.0000
20.8406	181.0000
20.8498	175.0000
20.8590	182.0000
20.8682	200.0000
20.8775	182.0000
20.8867	187.0000
20.8959	183.0000
20.9051	192.0000
20.9144	174.0000
20.9236	197.0000
20.9328	194.0000
20.9420	152.0000
20.9512	200.0000
20.9605	207.0000
20.9697	182.0000
20.9789	181.0000
20.9881	197.0000
20.9974	193.0000
21.0066	219.0000
21.0158	180.0000
21.0250	183.0000
21.0342	158.0000
21.0435	205.0000
21.0527	201.0000
21.0619	206.0000
21.0711	181.0000
21.0804	187.0000
21.0896	182.0000
21.0988	183.0000
21.1080	175.0000
21.1173	194.0000
21.1265	174.0000
21.1357	181.0000
21.1449	194.0000
21.1541	197.0000
21.1634	217.0000
21.1726	212.0000
21.1818	204.0000
21.1910	237.0000
21.2003	245.0000
21.2095	261.0000
21.2187	265.0000
21.2279	317.0000
21.2371	449.0000
21.2464	642.0000
21.2556	902.0000
21.2648	1349.0000
21.2740	1604.0000
21.2833	1691.0000
21.2925	1824.0000
21.3017	1797.0000
21.3109	1800.0000
21.3202	1242.0000
21.3294	789.0000
21.3386	481.0000
21.3478	362.0000
21.3570	378.0000
21.3663	401.0000
21.3755	535.0000
21.3847	707.0000
21.3939	841.0000
21.4032	914.0000
21.4124	945.0000
21.4216	1116.0000
21.4308	1062.0000
21.4400	912.0000
21.4493	663.0000
21.4585	444.0000
21.4677	298.0000
21.4769	265.0000
21.4862	236.0000
21.4954	225.0000
21.5046	187.0000
21.5138	229.0000
21.5231	186.0000
21.5323	198.0000
21.5415	205.0000
21.5507	217.0000
21.5599	210.0000
21.5692	187.0000
21.5784	185.0000
21.5876	162.0000
21.5968	206.0000
21.6061	189.0000
21.6153	190.0000
21.6245	184.0000
21.6337	207.0000
21.6429	186.0000
21.6522	191.0000
21.6614	182.0000
21.6706	164.0000
21.6798	219.0000
21.6891	183.0000
21.6983	196.0000
21.7075	162.0000
21.7167	191.0000
21.7259	189.0000
21.7352	187.0000
21.7444	199.0000
21.7536	187.0000
21.7628	176.0000
21.7721	167.0000
21.7813	158.0000
21.7905	180.0000
21.7997	188.0000
21.8090	180.0000
21.8182	196.0000
21.8274	176.0000
21.8366	180.0000
21.8458	163.0000
21.8551	180.0000
21.8643	186.0000
21.8735	152.0000
21.8827	174.0000
21.8920	169.0000
21.9012	177.0000
21.9104	191.0000
21.9196	205.0000
21.9288	196.0000
21.9381	181.0000
21.9473	199.0000
21.9565	169.0000
21.9657	167.0000
21.9750	182.0000
21.9842	200.0000
21.9934	183.0000
22.0026	176.0000
22.0119	181.0000
22.0211	190.0000
22.0303	162.0000
22.0395	184.0000
22.0487	199.0000
22.0580	193.0000
22.0672	198.0000
22.0764	160.0000
22.0856	201.0000
22.0949	156.0000
22.1041	184.0000
22.1133	194.0000
22.1225	183.0000
22.1317	174.0000
22.1410	144.0000
22.1502	167.0000
22.1594	158.0000
22.1686	183.0000
22.1779	183.0000
22.1871	187.0000
22.1963	164.0000
22.2055	172.0000
22.2147	174.0000
22.2240	180.0000
22.2332	163.0000
22.2424	143.0000
22.2516	171.0000
22.2609	202.0000
22.2701	167.0000
22.2793	162.0000
22.2885	178.0000
22.2978	177.0000
22.3070	147.0000
22.3162	156.0000
22.3254	194.0000
22.3346	173.0000
22.3439	172.0000
22.3531	183.0000
22.3623	174.0000
22.3715	166.0000
22.3808	177.0000
22.3900	149.0000
22.3992	172.0000
22.4084	204.0000
22.4176	187.0000
22.4269	214.0000
22.4361	171.0000
22.4453	189.0000
22.4545	184.0000
22.4638	173.0000
22.4730	164.0000
22.4822	184.0000
22.4914	167.0000
22.5007	150.0000
22.5099	185.0000
22.5191	169.0000
22.5283	198.0000
22.5375	172.0000
22.5468	198.0000
22.5560	189.0000
22.5652	155.0000
22.5744	164.0000
22.5837	162.0000
22.5929	181.0000
22.6021	185.0000
22.6113	171.0000
22.6205	167.0000
22.6298	157.0000
22.6390	162.0000
22.6482	161.0000
22.6574	196.0000
22.6667	171.0000
22.6759	164.0000
22.6851	181.0000
22.6943	170.0000
22.7036	171.0000
22.7128	160.0000
22.7220	171.0000
22.7312	160.0000
22.7404	164.0000
22.7497	166.0000
22.7589	191.0000
22.7681	175.0000
22.7773	183.0000
22.7866	177.0000
22.7958	168.0000
22.8050	165.0000
22.8142	172.0000
22.8234	161.0000
22.8327	172.0000
22.8419	175.0000
22.8511	176.0000
22.8603	163.0000
22.8696	168.0000
22.8788	170.0000
22.8880	174.0000
22.8972	166.0000
22.9064	190.0000
22.9157	158.0000
22.9249	156.0000
22.9341	174.0000
22.9433	185.0000
22.9526	157.0000
22.9618	180.0000
22.9710	164.0000
22.9802	166.0000
22.9895	164.0000
22.9987	137.0000
23.0079	177.0000
23.0171	168.0000
23.0263	141.0000
23.0356	163.0000
23.0448	151.0000
23.0540	182.0000
23.0632	141.0000
23.0725	171.0000
23.0817	171.0000
23.0909	178.0000
23.1001	182.0000
23.1093	171.0000
23.1186	175.0000
23.1278	157.0000
23.1370	167.0000
23.1462	174.0000
23.1555	151.0000
23.1647	176.0000
23.1739	182.0000
23.1831	150.0000
23.1924	154.0000
23.2016	146.0000
23.2108	175.0000
23.2200	184.0000
23.2292	157.0000
23.2385	158.0000
23.2477	164.0000
23.2569	167.0000
23.2661	147.0000
23.2754	189.0000
23.2846	162.0000
23.2938	141.0000
23.3030	146.0000
23.3122	153.0000
23.3215	154.0000
23.3307	202.0000
23.3399	159.0000
23.3491	157.0000
23.3584	158.0000
23.3676	165.0000
23.3768	180.0000
23.3860	176.0000
23.3952	161.0000
23.4045	167.0000
23.4137	172.0000
23.4229	186.0000
23.4321	165.0000
23.4414	176.0000
23.4506	166.0000
23.4598	186.0000
23.4690	166.0000
23.4783	167.0000
23.4875	150.0000
23.4967	162.0000
23.5059	166.0000
23.5151	170.0000
23.5244	163.0000
23.5336	187.0000
23.5428	165.0000
23.5520	166.0000
23.5613	184.0000
23.5705	148.0000
23.5797	168.0000
23.5889	162.0000
23.5981	142.0000
23.6074	175.0000
23.6166	167.0000
23.6258	171.0000
23.6350	157.0000
23.6443	180.0000
23.6535	181.0000
23.6627	161.0000
23.6719	166.0000
23.6812	149.0000
23.6904	184.0000
23.6996	161.0000
23.7088	191.0000
23.7180	174.0000
23.7273	162.0000
23.7365	170.0000
23.7457	189.0000
23.7549	175.0000
23.7642	152.0000
23.7734	202.0000
23.7826	162.0000
23.7918	149.0000
23.8010	162.0000
23.8103	144.0000
23.8195	161.0000
23.8287	153.0000
23.8379	153.0000
23.8472	154.0000
23.8564	181.0000
23.8656	172.0000
23.8748	166.0000
23.8841	168.0000
23.8933	160.0000
23.9025	161.0000
23.9117	178.0000
23.9209	165.0000
23.9302	174.0000
23.9394	168.0000
23.9486	146.0000
23.9578	164.0000
23.9671	159.0000
23.9763	165.0000
23.9855	159.0000
23.9947	175.0000
24.0039	173.0000
24.0132	159.0000
24.0224	179.0000
24.0316	161.0000
24.0408	178.0000
24.0501	180.0000
24.0593	166.0000
24.0685	171.0000
24.0777	165.0000
24.0869	172.0000
24.0962	173.0000
24.1054	197.0000
24.1146	173.0000
24.1238	150.0000
24.1331	159.0000
24.1423	175.0000
24.1515	186.0000
24.1607	168.0000
24.1700	169.0000
24.1792	181.0000
24.1884	183.0000
24.1976	189.0000
24.2068	145.0000
24.2161	168.0000
24.2253	152.0000
24.2345	180.0000
24.2437	174.0000
24.2530	166.0000
24.2622	173.0000
24.2714	170.0000
24.2806	163.0000
24.2898	185.0000
24.2991	192.0000
24.3083	162.0000
24.3175	162.0000
24.3267	180.0000
24.3360	159.0000
24.3452	155.0000
24.3544	175.0000
24.3636	150.0000
24.3729	158.0000
24.3821	156.0000
24.3913	182.0000
24.4005	159.0000
24.4097	158.0000
24.4190	162.0000
24.4282	170.0000
24.4374	152.0000
24.4466	183.0000
24.4559	172.0000
24.4651	146.0000
24.4743	177.0000
24.4835	158.0000
24.4927	164.0000
24.5020	157.0000
24.5112	188.0000
24.5204	165.0000
24.5296	156.0000
24.5389	170.0000
24.5481	157.0000
24.5573	153.0000
24.5665	171.0000
24.5757	172.0000
24.5850	171.0000
24.5942	142.0000
24.6034	173.0000
24.6126	190.0000
24.6219	152.0000
24.6311	174.0000
24.6403	178.0000
24.6495	175.0000
24.6588	158.0000
24.6680	167.0000
24.6772	181.0000
24.6864	158.0000
24.6956	172.0000
24.7049	177.0000
24.7141	160.0000
24.7233	169.0000
24.7325	160.0000
24.7418	173.0000
24.7510	188.0000
24.7602	173.0000
24.7694	181.0000
24.7786	162.0000
24.7879	156.0000
24.7971	144.0000
24.8063	175.0000
24.8155	167.0000
24.8248	156.0000
24.8340	190.0000
24.8432	176.0000
24.8524	180.0000
24.8617	175.0000
24.8709	162.0000
24.8801	173.0000
24.8893	178.0000
24.8985	169.0000
24.9078	154.0000
24.9170	147.0000
24.9262	163.0000
24.9354	172.0000
24.9447	172.0000
24.9539	178.0000
24.9631	163.0000
24.9723	179.0000
24.9815	153.0000
24.9908	164.0000
25.0000	167.0000
25.0092	158.0000
25.0184	192.0000
25.0277	155.0000
25.0369	175.0000
25.0461	140.0000
25.0553	140.0000
25.0646	182.0000
25.0738	168.0000
25.0830	160.0000
25.0922	165.0000
25.1014	152.0000
25.1107	173.0000
25.1199	155.0000
25.1291	177.0000
25.1383	176.0000
25.1476	145.0000
25.1568	186.0000
25.1660	162.0000
25.1752	184.0000
25.1844	172.0000
25.1937	175.0000
25.2029	180.0000
25.2121	176.0000
25.2213	158.0000
25.2306	174.0000
25.2398	160.0000
25.2490	181.0000
25.2582	174.0000
25.2674	164.0000
25.2767	165.0000
25.2859	164.0000
25.2951	179.0000
25.3043	180.0000
25.3136	176.0000
25.3228	160.0000
25.3320	152.0000
25.3412	184.0000
25.3505	183.0000
25.3597	180.0000
25.3689	188.0000
25.3781	157.0000
25.3873	164.0000
25.3966	158.0000
25.4058	164.0000
25.4150	168.0000
25.4242	188.0000
25.4335	192.0000
25.4427	187.0000
25.4519	175.0000
25.4611	161.0000
25.4703	164.0000
25.4796	168.0000
25.4888	166.0000
25.4980	179.0000
25.5072	158.0000
25.5165	169.0000
25.5257	193.0000
25.5349	163.0000
25.5441	173.0000
25.5534	157.0000
25.5626	178.0000
25.5718	179.0000
25.5810	159.0000
25.5902	186.0000
25.5995	180.0000
25.6087	184.0000
25.6179	173.0000
25.6271	173.0000
25.6364	177.0000
25.6456	153.0000
25.6548	155.0000
25.6640	178.0000
25.6732	185.0000
25.6825	169.0000
25.6917	167.0000
25.7009	158.0000
25.7101	164.0000
25.7194	158.0000
25.7286	189.0000
25.7378	174.0000
25.7470	189.0000
25.7562	158.0000
25.7655	184.0000
25.7747	169.0000
25.7839	169.0000
25.7931	164.0000
25.8024	149.0000
25.8116	191.0000
25.8208	180.0000
25.8300	194.0000
25.8393	152.0000
25.8485	168.0000
25.8577	168.0000
25.8669	173.0000
25.8761	175.0000
25.8854	169.0000
25.8946	171.0000
25.9038	175.0000
25.9130	162.0000
25.9223	181.0000
25.9315	171.0000
25.9407	195.0000
25.9499	171.0000
25.9591	178.0000
25.9684	162.0000
25.9776	180.0000
25.9868	170.0000
25.9960	175.0000
26.0053	174.0000
26.0145	151.0000
26.0237	189.0000
26.0329	196.0000
26.0422	151.0000
26.0514	153.0000
26.0606	173.0000
26.0698	183.0000
26.0790	150.0000
26.0883	187.0000
26.0975	172.0000
26.1067	167.0000
26.1159	165.0000
26.1252	177.0000
26.1344	163.0000
26.1436	185.0000
26.1528	186.0000
26.1620	194.0000
26.1713	219.0000
26.1805	182.0000
26.1897	185.0000
26.1989	166.0000
26.2082	186.0000
26.2174	156.0000
26.2266	161.0000
26.2358	155.0000
26.2451	163.0000
26.2543	184.0000
26.2635	152.0000
26.2727	181.0000
26.2819	188.0000
26.2912	181.0000
26.3004	190.0000
26.3096	181.0000
26.3188	173.0000
26.3281	160.0000
26.3373	184.0000
26.3465	181.0000
26.3557	179.0000
26.3649	190.0000
26.3742	155.0000
26.3834	177.0000
26.3926	187.0000
26.4018	179.0000
26.4111	164.0000
26.4203	177.0000
26.4295	184.0000
26.4387	164.0000
26.4479	186.0000
26.4572	177.0000
26.4664	190.0000
26.4756	187.0000
26.4848	199.0000
26.4941	184.0000
26.5033	146.0000
26.5125	181.0000
26.5217	185.0000
26.5310	171.0000
26.5402	171.0000
26.5494	184.0000
26.5586	199.0000
26.5678	206.0000
26.5771	184.0000
26.5863	180.0000
26.5955	149.0000
26.6047	177.0000
26.6140	178.0000
26.6232	186.0000
26.6324	175.0000
26.6416	166.0000
26.6508	183.0000
26.6601	178.0000
26.6693	193.0000
26.6785	168.0000
26.6877	189.0000
26.6970	209.0000
26.7062	183.0000
26.7154	188.0000
26.7246	184.0000
26.7339	187.0000
26.7431	181.0000
26.7523	191.0000
26.7615	187.0000
26.7707	168.0000
26.7800	165.0000
26.7892	164.0000
26.7984	169.0000
26.8076	199.0000
26.8169	184.0000
26.8261	169.0000
26.8353	173.0000
26.8445	162.0000
26.8537	182.0000
26.8630	177.0000
26.8722	165.0000
26.8814	204.0000
26.8906	174.0000
26.8999	181.0000
26.9091	194.0000
26.9183	205.0000
26.9275	190.0000
26.9367	192.0000
26.9460	171.0000
26.9552	174.0000
26.9644	175.0000
26.9736	184.0000
26.9829	169.0000
26.9921	178.0000
27.0013	210.0000
27.0105	163.0000
27.0198	183.0000
27.0290	174.0000
27.0382	208.0000
27.0474	178.0000
27.0566	196.0000
27.0659	173.0000
27.0751	203.0000
27.0843	189.0000
27.0935	178.0000
27.1028	173.0000
27.1120	186.0000
27.1212	186.0000
27.1304	175.0000
27.1396	186.0000
27.1489	189.0000
27.1581	191.0000
27.1673	204.0000
27.1765	166.0000
27.1858	184.0000
27.1950	181.0000
27.2042	197.0000
27.2134	179.0000
27.2227	164.0000
27.2319	175.0000
27.2411	178.0000
27.2503	205.0000
27.2595	163.0000
27.2688	195.0000
27.2780	215.0000
27.2872	169.0000
27.2964	182.0000
27.3057	186.0000
27.3149	206.0000
27.3241	217.0000
27.3333	198.0000
27.3425	184.0000
27.3518	175.0000
27.3610	192.0000
27.3702	193.0000
27.3794	185.0000
27.3887	189.0000
27.3979	201.0000
27.4071	183.0000
27.4163	191.0000
27.4256	171.0000
27.4348	190.0000
27.4440	196.0000
27.4532	177.0000
27.4624	172.0000
27.4717	218.0000
27.4809	193.0000
27.4901	181.0000
27.4993	160.0000
27.5086	206.0000
27.5178	217.0000
27.5270	177.0000
27.5362	186.0000
27.5454	175.0000
27.5547	194.0000
27.5639	170.0000
27.5731	168.0000
27.5823	190.0000
27.5916	167.0000
27.6008	194.0000
27.6100	201.0000
27.6192	179.0000
27.6284	178.0000
27.6377	206.0000
27.6469	183.0000
27.6561	178.0000
27.6653	194.0000
27.6746	197.0000
27.6838	174.0000
27.6930	190.0000
27.7022	168.0000
27.7115	192.0000
27.7207	178.0000
27.7299	190.0000
27.7391	179.0000
27.7483	176.0000
27.7576	213.0000
27.7668	178.0000
27.7760	202.0000
27.7852	183.0000
27.7945	195.0000
27.8037	205.0000
27.8129	183.0000
27.8221	215.0000
27.8313	197.0000
27.8406	197.0000
27.8498	190.0000
27.8590	165.0000
27.8682	187.0000
27.8775	185.0000
27.8867	189.0000
27.8959	196.0000
27.9051	185.0000
27.9144	173.0000
27.9236	179.0000
27.9328	209.0000
27.9420	174.0000
27.9512	178.0000
27.9605	184.0000
27.9697	197.0000
27.9789	177.0000
27.9881	183.0000
27.9974	164.0000
28.0066	201.0000
28.0158	198.0000
28.0250	179.0000
28.0342	188.0000
28.0435	198.0000
28.0527	175.0000
28.0619	200.0000
28.0711	176.0000
28.0804	204.0000
28.0896	205.0000
28.0988	206.0000
28.1080	201.0000
28.1172	179.0000
28.1265	200.0000
28.1357	188.0000
28.1449	171.0000
28.1541	172.0000
28.1634	210.0000
28.1726	193.0000
28.1818	204.0000
28.1910	184.0000
28.2003	187.0000
28.2095	183.0000
28.2187	209.0000
28.2279	192.0000
28.2371	180.0000
28.2464	204.0000
28.2556	191.0000
28.2648	198.0000
28.2740	199.0000
28.2833	212.0000
28.2925	181.0000
28.3017	205.0000
28.3109	201.0000
28.3201	175.0000
28.3294	213.0000
28.3386	190.0000
28.3478	180.0000
28.3570	185.0000
28.3663	180.0000
28.3755	176.0000
28.3847	190.0000
28.3939	224.0000
28.4032	181.0000
28.4124	173.0000
28.4216	184.0000
28.4308	218.0000
28.4400	185.0000
28.4493	199.0000
28.4585	199.0000
28.4677	175.0000
28.4769	167.0000
28.4862	185.0000
28.4954	195.0000
28.5046	196.0000
28.5138	199.0000
28.5230	194.0000
28.5323	224.0000
28.5415	182.0000
28.5507	216.0000
28.5599	202.0000
28.5692	214.0000
28.5784	193.0000
28.5876	193.0000
28.5968	201.0000
28.6061	200.0000
28.6153	173.0000
28.6245	183.0000
28.6337	190.0000
28.6429	206.0000
28.6522	220.0000
28.6614	211.0000
28.6706	183.0000
28.6798	194.0000
28.6891	182.0000
28.6983	214.0000
28.7075	178.0000
28.7167	212.0000
28.7259	187.0000
28.7352	200.0000
28.7444	166.0000
28.7536	193.0000
28.7628	206.0000
28.7721	195.0000
28.7813	222.0000
28.7905	207.0000
28.7997	206.0000
28.8089	210.0000
28.8182	195.0000
28.8274	207.0000
28.8366	185.0000
28.8458	184.0000
28.8551	215.0000
28.8643	181.0000
28.8735	198.0000
28.8827	190.0000
28.8920	196.0000
28.9012	170.0000
28.9104	200.0000
28.9196	177.0000
28.9288	212.0000
28.9381	208.0000
28.9473	185.0000
28.9565	191.0000
28.9657	190.0000
28.9750	184.0000
28.9842	202.0000
28.9934	179.0000
29.0026	199.0000
29.0118	193.0000
29.0211	198.0000
29.0303	194.0000
29.0395	206.0000
29.0487	172.0000
29.0580	203.0000
29.0672	167.0000
29.0764	191.0000
29.0856	165.0000
29.0949	189.0000
29.1041	211.0000
29.1133	197.0000
29.1225	202.0000
29.1317	216.0000
29.1410	187.0000
29.1502	225.0000
29.1594	206.0000
29.1686	179.0000
29.1779	214.0000
29.1871	185.0000
29.1963	175.0000
29.2055	194.0000
29.2147	173.0000
29.2240	178.0000
29.2332	194.0000
29.2424	182.0000
29.2516	183.0000
29.2609	191.0000
29.2701	203.0000
29.2793	182.0000
29.2885	195.0000
29.2977	187.0000
29.3070	168.0000
29.3162	167.0000
29.3254	181.0000
29.3346	176.0000
29.3439	182.0000
29.3531	195.0000
29.3623	190.0000
29.3715	184.0000
29.3808	203.0000
29.3900	204.0000
29.3992	194.0000
29.4084	201.0000
29.4176	194.0000
29.4269	168.0000
29.4361	197.0000
29.4453	188.0000
29.4545	185.0000
29.4638	187.0000
29.4730	201.0000
29.4822	209.0000
29.4914	200.0000
29.5006	202.0000
29.5099	170.0000
29.5191	202.0000
29.5283	178.0000
29.5375	203.0000
29.5468	186.0000
29.5560	197.0000
29.5652	205.0000
29.5744	181.0000
29.5837	160.0000
29.5929	196.0000
29.6021	175.0000
29.6113	222.0000
29.6205	217.0000
29.6298	198.0000
29.6390	200.0000
29.6482	185.0000
29.6574	210.0000
29.6667	193.0000
29.6759	205.0000
29.6851	184.0000
29.6943	181.0000
29.7035	168.0000
29.7128	207.0000
29.7220	201.0000
29.7312	188.0000
29.7404	184.0000
29.7497	192.0000
29.7589	189.0000
29.7681	179.0000
29.7773	198.0000
29.7866	223.0000
29.7958	174.0000
29.8050	209.0000
29.8142	188.0000
29.8234	194.0000
29.8327	182.0000
29.8419	195.0000
29.8511	187.0000
29.8603	186.0000
29.8696	189.0000
29.8788	169.0000
29.8880	192.0000
29.8972	173.0000
29.9064	232.0000
29.9157	214.0000
29.9249	169.0000
29.9341	190.0000
29.9433	182.0000
29.9526	195.0000
29.9618	202.0000
29.9710	204.0000
29.9802	202.0000
29.9894	201.0000
29.9987	198.0000
30.0079	187.0000
30.0171	184.0000
30.0263	185.0000
30.0356	180.0000
30.0448	202.0000
30.0540	192.0000
30.0632	182.0000
30.0725	177.0000
30.0817	182.0000
30.0909	213.0000
30.1001	201.0000
30.1093	196.0000
30.1186	183.0000
30.1278	170.0000
30.1370	181.0000
30.1462	190.0000
30.1555	188.0000
30.1647	198.0000
30.1739	206.0000
30.1831	181.0000
30.1923	196.0000
30.2016	209.0000
30.2108	173.0000
30.2200	207.0000
30.2292	189.0000
30.2385	161.0000
30.2477	174.0000
30.2569	197.0000
30.2661	193.0000
30.2754	181.0000
30.2846	214.0000
30.2938	195.0000
30.3030	200.0000
30.3122	214.0000
30.3215	198.0000
30.3307	218.0000
30.3399	192.0000
30.3491	200.0000
30.3584	189.0000
30.3676	198.0000
30.3768	167.0000
30.3860	207.0000
30.3952	179.0000
30.4045	178.0000
30.4137	178.0000
30.4229	207.0000
30.4321	214.0000
30.4414	173.0000
30.4506	182.0000
30.4598	203.0000
30.4690	203.0000
30.4782	188.0000
30.4875	186.0000
30.4967	187.0000
30.5059	202.0000
30.5151	198.0000
30.5244	188.0000
30.5336	199.0000
30.5428	192.0000
30.5520	179.0000
30.5613	216.0000
30.5705	210.0000
30.5797	184.0000
30.5889	179.0000
30.5981	197.0000
30.6074	222.0000
30.6166	173.0000
30.6258	186.0000
30.6350	201.0000
30.6443	203.0000
30.6535	182.0000
30.6627	191.0000
30.6719	190.0000
30.6811	191.0000
30.6904	188.0000
30.6996	192.0000
30.7088	186.0000
30.7180	182.0000
30.7273	174.0000
30.7365	220.0000
30.7457	179.0000
30.7549	185.0000
30.7642	201.0000
30.7734	196.0000
30.7826	166.0000
30.7918	155.0000
30.8010	205.0000
30.8103	214.0000
30.8195	188.0000
30.8287	212.0000
30.8379	170.0000
30.8472	215.0000
30.8564	166.0000
30.8656	198.0000
30.8748	167.0000
30.8840	185.0000
30.8933	196.0000
30.9025	192.0000
30.9117	178.0000
30.9209	180.0000
30.9302	188.0000
30.9394	190.0000
30.9486	190.0000
30.9578	182.0000
30.9671	189.0000
30.9763	197.0000
30.9855	185.0000
30.9947	172.0000
31.0039	193.0000
31.0132	196.0000
31.0224	178.0000
31.0316	209.0000
31.0408	194.0000
31.0501	169.0000
31.0593	190.0000
31.0685	202.0000
31.0777	197.0000
31.0869	176.0000
31.0962	206.0000
31.1054	202.0000
31.1146	201.0000
31.1238	177.0000
31.1331	194.0000
31.1423	192.0000
31.1515	175.0000
31.1607	169.0000
31.1699	192.0000
31.1792	172.0000
31.1884	208.0000
31.1976	168.0000
31.2068	183.0000
31.2161	181.0000
31.2253	186.0000
31.2345	177.0000
31.2437	195.0000
31.2530	170.0000
31.2622	166.0000
31.2714	189.0000
31.2806	193.0000
31.2898	178.0000
31.2991	200.0000
31.3083	203.0000
31.3175	168.0000
31.3267	163.0000
31.3360	202.0000
31.3452	145.0000
31.3544	194.0000
31.3636	194.0000
31.3728	186.0000
31.3821	193.0000
31.3913	180.0000
31.4005	201.0000
31.4097	195.0000
31.4190	193.0000
31.4282	207.0000
31.4374	210.0000
31.4466	193.0000
31.4559	162.0000
31.4651	202.0000
31.4743	200.0000
31.4835	142.0000
31.4927	201.0000
31.5020	182.0000
31.5112	207.0000
31.5204	201.0000
31.5296	189.0000
31.5389	179.0000
31.5481	188.0000
31.5573	176.0000
31.5665	187.0000
31.5757	189.0000
31.5850	169.0000
31.5942	197.0000
31.6034	191.0000
31.6126	190.0000
31.6219	209.0000
31.6311	190.0000
31.6403	187.0000
31.6495	200.0000
31.6587	196.0000
31.6680	175.0000
31.6772	187.0000
31.6864	192.0000
31.6956	190.0000
31.7049	194.0000
31.7141	194.0000
31.7233	207.0000
31.7325	190.0000
31.7418	195.0000
31.7510	191.0000
31.7602	187.0000
31.7694	223.0000
31.7786	209.0000
31.7879	163.0000
31.7971	206.0000
31.8063	188.0000
31.8155	176.0000
31.8248	206.0000
31.8340	212.0000
31.8432	163.0000
31.8524	171.0000
31.8616	188.0000
31.8709	189.0000
31.8801	222.0000
31.8893	156.0000
31.8985	195.0000
31.9078	168.0000
31.9170	178.0000
31.9262	207.0000
31.9354	193.0000
31.9447	193.0000
31.9539	195.0000
31.9631	203.0000
31.9723	185.0000
31.9815	201.0000
31.9908	173.0000
32.0000	178.0000
32.0092	193.0000
32.0184	196.0000
32.0277	203.0000
32.0369	200.0000
32.0461	174.0000
32.0553	183.0000
32.0645	182.0000
32.0738	200.0000
32.0830	190.0000
32.0922	199.0000
32.1014	187.0000
32.1107	189.0000
32.1199	182.0000
32.1291	219.0000
32.1383	186.0000
32.1476	186.0000
32.1568	169.0000
32.1660	190.0000
32.1752	188.0000
32.1844	172.0000
32.1937	202.0000
32.2029	196.0000
32.2121	176.0000
32.2213	173.0000
32.2306	173.0000
32.2398	203.0000
32.2490	195.0000
32.2582	188.0000
32.2674	203.0000
32.2767	197.0000
32.2859	175.0000
32.2951	222.0000
32.3043	222.0000
32.3136	182.0000
32.3228	162.0000
32.3320	197.0000
32.3412	166.0000
32.3504	197.0000
32.3597	171.0000
32.3689	209.0000
32.3781	191.0000
32.3873	192.0000
32.3966	195.0000
32.4058	194.0000
32.4150	191.0000
32.4242	215.0000
32.4335	208.0000
32.4427	194.0000
32.4519	213.0000
32.4611	210.0000
32.4703	188.0000
32.4796	197.0000
32.4888	183.0000
32.4980	178.0000
32.5072	196.0000
32.5165	172.0000
32.5257	189.0000
32.5349	194.0000
32.5441	180.0000
32.5533	171.0000
32.5626	187.0000
32.5718	179.0000
32.5810	203.0000
32.5902	170.0000
32.5995	203.0000
32.6087	169.0000
32.6179	218.0000
32.6271	179.0000
32.6364	177.0000
32.6456	234.0000
32.6548	185.0000
32.6640	179.0000
32.6732	197.0000
32.6825	192.0000
32.6917	176.0000
32.7009	184.0000
32.7101	179.0000
32.7194	175.0000
32.7286	191.0000
32.7378	211.0000
32.7470	190.0000
32.7562	191.0000
32.7655	200.0000
32.7747	175.0000
32.7839	173.0000
32.7931	206.0000
32.8024	187.0000
32.8116	187.0000
32.8208	191.0000
32.8300	194.0000
32.8392	206.0000
32.8485	188.0000
32.8577	192.0000
32.8669	190.0000
32.8761	188.0000
32.8854	180.0000
32.8946	204.0000
32.9038	161.0000
32.9130	185.0000
32.9223	177.0000
32.9315	189.0000
32.9407	174.0000
32.9499	185.0000
32.9591	195.0000
32.9684	183.0000
32.9776	213.0000
32.9868	189.0000
32.9960	178.0000
33.0053	205.0000
33.0145	168.0000
33.0237	161.0000
33.0329	195.0000
33.0421	207.0000
33.0514	215.0000
33.0606	181.0000
33.0698	196.0000
33.0790	198.0000
33.0883	207.0000
33.0975	176.0000
33.1067	187.0000
33.1159	164.0000
33.1252	181.0000
33.1344	209.0000
33.1436	195.0000
33.1528	206.0000
33.1620	197.0000
33.1713	191.0000
33.1805	190.0000
33.1897	202.0000
33.1989	183.0000
33.2082	205.0000
33.2174	190.0000
33.2266	181.0000
33.2358	202.0000
33.2450	190.0000
33.2543	170.0000
33.2635	176.0000
33.2727	194.0000
33.2819	195.0000
33.2912	213.0000
33.3004	190.0000
33.3096	191.0000
33.3188	204.0000
33.3281	210.0000
33.3373	189.0000
33.3465	185.0000
33.3557	178.0000
33.3649	207.0000
33.3742	196.0000
33.3834	184.0000
33.3926	189.0000
33.4018	175.0000
33.4111	179.0000
33.4203	176.0000
33.4295	197.0000
33.4387	177.0000
33.4479	205.0000
33.4572	195.0000
33.4664	202.0000
33.4756	188.0000
33.4848	194.0000
33.4941	195.0000
33.5033	186.0000
33.5125	179.0000
33.5217	188.0000
33.5309	170.0000
33.5402	190.0000
33.5494	186.0000
33.5586	195.0000
33.5678	207.0000
33.5771	182.0000
33.5863	209.0000
33.5955	194.0000
33.6047	168.0000
33.6140	182.0000
33.6232	151.0000
33.6324	188.0000
33.6416	190.0000
33.6508	184.0000
33.6601	214.0000
33.6693	200.0000
33.6785	187.0000
33.6877	197.0000
33.6970	203.0000
33.7062	197.0000
33.7154	201.0000
33.7246	185.0000
33.7338	176.0000
33.7431	166.0000
33.7523	190.0000
33.7615	217.0000
33.7707	187.0000
33.7800	198.0000
33.7892	181.0000
33.7984	175.0000
33.8076	192.0000
33.8169	182.0000
33.8261	199.0000
33.8353	203.0000
33.8445	196.0000
33.8537	194.0000
33.8630	208.0000
33.8722	213.0000
33.8814	182.0000
33.8906	175.0000
33.8999	216.0000
33.9091	175.0000
33.9183	206.0000
33.9275	193.0000
33.9367	216.0000
33.9460	192.0000
33.9552	183.0000
33.9644	177.0000
33.9736	177.0000
33.9829	201.0000
33.9921	184.0000
34.0013	195.0000
34.0105	203.0000
34.0197	181.0000
34.0290	181.0000
34.0382	191.0000
34.0474	198.0000
34.0566	191.0000
34.0659	173.0000
34.0751	178.0000
34.0843	176.0000
34.0935	180.0000
34.1028	206.0000
34.1120	185.0000
34.1212	171.0000
34.1304	191.0000
34.1396	192.0000
34.1489	182.0000
34.1581	200.0000
34.1673	162.0000
34.1765	180.0000
34.1858	196.0000
34.1950	189.0000
34.2042	186.0000
34.2134	187.0000
34.2226	199.0000
34.2319	177.0000
34.2411	182.0000
34.2503	179.0000
34.2595	165.0000
34.2688	171.0000
34.2780	202.0000
34.2872	170.0000
34.2964	187.0000
34.3057	178.0000
34.3149	172.0000
34.3241	170.0000
34.3333	185.0000
34.3425	191.0000
34.3518	184.0000
34.3610	190.0000
34.3702	181.0000
34.3794	169.0000
34.3887	197.0000
34.3979	178.0000
34.4071	164.0000
34.4163	164.0000
34.4255	182.0000
34.4348	155.0000
34.4440	200.0000
34.4532	172.0000
34.4624	166.0000
34.4717	168.0000
34.4809	179.0000
34.4901	174.0000
34.4993	195.0000
34.5086	177.0000
34.5178	192.0000
34.5270	184.0000
34.5362	174.0000
34.5454	168.0000
34.5547	172.0000
34.5639	189.0000
34.5731	197.0000
34.5823	179.0000
34.5916	173.0000
34.6008	160.0000
34.6100	181.0000
34.6192	175.0000
34.6284	181.0000
34.6377	168.0000
34.6469	175.0000
34.6561	179.0000
34.6653	149.0000
34.6746	187.0000
34.6838	168.0000
34.6930	174.0000
34.7022	185.0000
34.7114	191.0000
34.7207	146.0000
34.7299	176.0000
34.7391	176.0000
34.7483	160.0000
34.7576	190.0000
34.7668	153.0000
34.7760	177.0000
34.7852	183.0000
34.7945	172.0000
34.8037	168.0000
34.8129	156.0000
34.8221	181.0000
34.8313	189.0000
34.8406	197.0000
34.8498	168.0000
34.8590	168.0000
34.8682	156.0000
34.8775	170.0000
34.8867	163.0000
34.8959	190.0000
34.9051	173.0000
34.9143	188.0000
34.9236	171.0000
34.9328	164.0000
34.9420	173.0000
34.9512	149.0000
34.9605	188.0000
34.9697	168.0000
34.9789	158.0000
34.9881	162.0000
34.9974	166.0000
35.0066	160.0000
35.0158	138.0000
35.0250	176.0000
35.0342	142.0000
35.0435	172.0000
35.0527	146.0000
35.0619	161.0000
35.0711	162.0000
35.0804	169.0000
35.0896	188.0000
35.0988	182.0000
35.1080	164.0000
35.1172	189.0000
35.1265	174.0000
35.1357	164.0000
35.1449	166.0000
35.1541	169.0000
35.1634	155.0000
35.1726	169.0000
35.1818	176.0000
35.1910	158.0000
35.2002	163.0000
35.2095	177.0000
35.2187	164.0000
35.2279	150.0000
35.2371	148.0000
35.2464	165.0000
35.2556	198.0000
35.2648	186.0000
35.2740	158.0000
35.2833	160.0000
35.2925	168.0000
35.3017	165.0000
35.3109	159.0000
35.3201	158.0000
35.3294	150.0000
35.3386	169.0000
35.3478	158.0000
35.3570	172.0000
35.3663	159.0000
35.3755	145.0000
35.3847	159.0000
35.3939	164.0000
35.4031	144.0000
35.4124	141.0000
35.4216	152.0000
35.4308	149.0000
35.4400	153.0000
35.4493	146.0000
35.4585	140.0000
35.4677	157.0000
35.4769	171.0000
35.4862	171.0000
35.4954	166.0000
35.5046	166.0000
35.5138	159.0000
35.5230	146.0000
35.5323	173.0000
35.5415	163.0000
35.5507	149.0000
35.5599	152.0000
35.5692	150.0000
35.5784	153.0000
35.5876	156.0000
35.5968	156.0000
35.6060	154.0000
35.6153	155.0000
35.6245	162.0000
35.6337	149.0000
35.6429	181.0000
35.6522	157.0000
35.6614	161.0000
35.6706	156.0000
35.6798	161.0000
35.6891	142.0000
35.6983	135.0000
35.7075	132.0000
35.7167	162.0000
35.7259	121.0000
35.7352	143.0000
35.7444	184.0000
35.7536	142.0000
35.7628	149.0000
35.7721	157.0000
35.7813	127.0000
35.7905	157.0000
35.7997	145.0000
35.8089	151.0000
35.8182	143.0000
35.8274	153.0000
35.8366	172.0000
35.8458	140.0000
35.8551	139.0000
35.8643	142.0000
35.8735	137.0000
35.8827	135.0000
35.8919	130.0000
35.9012	132.0000
35.9104	157.0000
35.9196	147.0000
35.9288	133.0000
35.9381	146.0000
35.9473	158.0000
35.9565	136.0000
35.9657	145.0000
35.9750	147.0000
35.9842	137.0000
35.9934	155.0000
36.0026	119.0000
36.0118	150.0000
36.0211	126.0000
36.0303	152.0000
36.0395	144.0000
36.0487	138.0000
36.0580	127.0000
36.0672	147.0000
36.0764	158.0000
36.0856	161.0000
36.0948	142.0000
36.1041	127.0000
36.1133	134.0000
36.1225	139.0000
36.1317	144.0000
36.1410	149.0000
36.1502	126.0000
36.1594	133.0000
36.1686	130.0000
36.1779	128.0000
36.1871	142.0000
36.1963	140.0000
36.2055	146.0000
36.2147	117.0000
36.2240	124.0000
36.2332	144.0000
36.2424	148.0000
36.2516	120.0000
36.2609	148.0000
36.2701	150.0000
36.2793	126.0000
36.2885	144.0000
36.2977	125.0000
36.3070	121.0000
36.3162	139.0000
36.3254	151.0000
36.3346	132.0000
36.3439	125.0000
36.3531	130.0000
36.3623	113.0000
36.3715	140.0000
36.3807	144.0000
36.3900	144.0000
36.3992	135.0000
36.4084	128.0000
36.4176	127.0000
36.4269	121.0000
36.4361	137.0000
36.4453	125.0000
36.4545	122.0000
36.4638	142.0000
36.4730	138.0000
36.4822	140.0000
36.4914	121.0000
36.5006	134.0000
36.5099	151.0000
36.5191	116.0000
36.5283	130.0000
36.5375	130.0000
36.5468	135.0000
36.5560	140.0000
36.5652	134.0000
36.5744	122.0000
36.5836	132.0000
36.5929	129.0000
36.6021	132.0000
36.6113	128.0000
36.6205	133.0000
36.6298	112.0000
36.6390	105.0000
36.6482	114.0000
36.6574	127.0000
36.6667	111.0000
36.6759	115.0000
36.6851	112.0000
36.6943	100.0000
36.7035	124.0000
36.7128	118.0000
36.7220	129.0000
36.7312	142.0000
36.7404	124.0000
36.7497	129.0000
36.7589	110.0000
36.7681	115.0000
36.7773	128.0000
36.7865	127.0000
36.7958	131.0000
36.8050	123.0000
36.8142	126.0000
36.8234	127.0000
36.8327	118.0000
36.8419	119.0000
36.8511	123.0000
36.8603	120.0000
36.8696	124.0000
36.8788	129.0000
36.8880	128.0000
36.8972	120.0000
36.9064	117.0000
36.9157	122.0000
36.9249	116.0000
36.9341	126.0000
36.9433	137.0000
36.9526	111.0000
36.9618	111.0000
36.9710	113.0000
36.9802	124.0000
36.9894	126.0000
36.9987	107.0000
37.0079	134.0000
37.0171	120.0000
37.0263	120.0000
37.0356	117.0000
37.0448	102.0000
37.0540	114.0000
37.0632	127.0000
37.0724	120.0000
37.0817	91.0000
37.0909	116.0000
37.1001	113.0000
37.1093	122.0000
37.1186	107.0000
37.1278	104.0000
37.1370	131.0000
37.1462	111.0000
37.1555	100.0000
37.1647	134.0000
37.1739	120.0000
37.1831	112.0000
37.1923	143.0000
37.2016	114.0000
37.2108	131.0000
37.2200	107.0000
37.2292	137.0000
37.2385	123.0000
37.2477	131.0000
37.2569	114.0000
37.2661	142.0000
37.2753	128.0000
37.2846	150.0000
37.2938	193.0000
37.3030	215.0000
37.3122	256.0000
37.3215	290.0000
37.3307	348.0000
37.3399	331.0000
37.3491	299.0000
37.3584	240.0000
37.3676	183.0000
37.3768	139.0000
37.3860	133.0000
37.3952	140.0000
37.4045	131.0000
37.4137	127.0000
37.4229	112.0000
37.4321	137.0000
37.4414	136.0000
37.4506	110.0000
37.4598	112.0000
37.4690	121.0000
37.4782	110.0000
37.4875	115.0000
37.4967	106.0000
37.5059	125.0000
37.5151	135.0000
37.5244	167.0000
37.5336	178.0000
37.5428	182.0000
37.5520	189.0000
37.5612	214.0000
37.5705	205.0000
37.5797	177.0000
37.5889	184.0000
37.5981	133.0000
37.6074	136.0000
37.6166	124.0000
37.6258	125.0000
37.6350	119.0000
37.6443	116.0000
37.6535	102.0000
37.6627	100.0000
37.6719	136.0000
37.6811	110.0000
37.6904	109.0000
37.6996	115.0000
37.7088	113.0000
37.7180	96.0000
37.7273	115.0000
37.7365	109.0000
37.7457	104.0000
37.7549	107.0000
37.7641	113.0000
37.7734	101.0000
37.7826	99.0000
37.7918	105.0000
37.8010	101.0000
37.8103	118.0000
37.8195	112.0000
37.8287	111.0000
37.8379	126.0000
37.8472	109.0000
37.8564	91.0000
37.8656	101.0000
37.8748	122.0000
37.8840	113.0000
37.8933	118.0000
37.9025	103.0000
37.9117	109.0000
37.9209	117.0000
37.9302	103.0000
37.9394	99.0000
37.9486	119.0000
37.9578	109.0000
37.9670	107.0000
37.9763	97.0000
37.9855	99.0000
37.9947	107.0000
38.0039	93.0000
38.0132	93.0000
38.0224	118.0000
38.0316	108.0000
38.0408	101.0000
38.0501	97.0000
38.0593	112.0000
38.0685	108.0000
38.0777	84.0000
38.0869	102.0000
38.0962	123.0000
38.1054	111.0000
38.1146	86.0000
38.1238	103.0000
38.1331	105.0000
38.1423	114.0000
38.1515	121.0000
38.1607	113.0000
38.1699	103.0000
38.1792	102.0000
38.1884	115.0000
38.1976	103.0000
38.2068	97.0000
38.2161	90.0000
38.2253	89.0000
38.2345	100.0000
38.2437	108.0000
38.2529	89.0000
38.2622	112.0000
38.2714	120.0000
38.2806	93.0000
38.2898	95.0000
38.2991	85.0000
38.3083	101.0000
38.3175	107.0000
38.3267	112.0000
38.3360	108.0000
38.3452	105.0000
38.3544	99.0000
38.3636	89.0000
38.3728	94.0000
38.3821	99.0000
38.3913	82.0000
38.4005	110.0000
38.4097	105.0000
38.4190	102.0000
38.4282	90.0000
38.4374	87.0000
38.4466	90.0000
38.4558	94.0000
38.4651	91.0000
38.4743	98.0000
38.4835	100.0000
38.4927	116.0000
38.5020	105.0000
38.5112	101.0000
38.5204	110.0000
38.5296	127.0000
38.5389	93.0000
38.5481	99.0000
38.5573	111.0000
38.5665	88.0000
38.5757	112.0000
38.5850	99.0000
38.5942	111.0000
38.6034	94.0000
38.6126	109.0000
38.6219	116.0000
38.6311	110.0000
38.6403	114.0000
38.6495	102.0000
38.6587	89.0000
38.6680	106.0000
38.6772	79.0000
38.6864	106.0000
38.6956	101.0000
38.7049	93.0000
38.7141	113.0000
38.7233	97.0000
38.7325	108.0000
38.7417	108.0000
38.7510	115.0000
38.7602	106.0000
38.7694	110.0000
38.7786	112.0000
38.7879	112.0000
38.7971	88.0000
38.8063	114.0000
38.8155	113.0000
38.8248	104.0000
38.8340	104.0000
38.8432	117.0000
38.8524	109.0000
38.8616	85.0000
38.8709	97.0000
38.8801	101.0000
38.8893	100.0000
38.8985	96.0000
38.9078	79.0000
38.9170	93.0000
38.9262	95.0000
38.9354	104.0000
38.9446	112.0000
38.9539	104.0000
38.9631	92.0000
38.9723	107.0000
38.9815	95.0000
38.9908	95.0000
39.0000	89.0000
39.0092	97.0000
39.0184	101.0000
39.0277	89.0000
39.0369	103.0000
39.0461	70.0000
39.0553	93.0000
39.0645	89.0000
39.0738	81.0000
39.0830	103.0000
39.0922	100.0000
39.1014	100.0000
39.1107	98.0000
39.1199	94.0000
39.1291	111.0000
39.1383	111.0000
39.1475	113.0000
39.1568	108.0000
39.1660	108.0000
39.1752	94.0000
39.1844	108.0000
39.1937	94.0000
39.2029	99.0000
39.2121	106.0000
39.2213	89.0000
39.2306	127.0000
39.2398	85.0000
39.2490	85.0000
39.2582	99.0000
39.2674	109.0000
39.2767	119.0000
39.2859	99.0000
39.2951	88.0000
39.3043	99.0000
39.3136	91.0000
39.3228	92.0000
39.3320	102.0000
39.3412	99.0000
39.3504	111.0000
39.3597	94.0000
39.3689	104.0000
39.3781	112.0000
39.3873	84.0000
39.3966	99.0000
39.4058	92.0000
39.4150	96.0000
39.4242	96.0000
39.4334	104.0000
39.4427	91.0000
39.4519	101.0000
39.4611	97.0000
39.4703	105.0000
39.4796	114.0000
39.4888	83.0000
39.4980	90.0000
39.5072	93.0000
39.5165	87.0000
39.5257	79.0000
39.5349	98.0000
39.5441	89.0000
39.5533	126.0000
39.5626	97.0000
39.5718	101.0000
39.5810	102.0000
39.5902	77.0000
39.5995	113.0000
39.6087	91.0000
39.6179	102.0000
39.6271	95.0000
39.6363	76.0000
39.6456	95.0000
39.6548	111.0000
39.6640	94.0000
39.6732	85.0000
39.6825	106.0000
39.6917	102.0000
39.7009	96.0000
39.7101	102.0000
39.7194	107.0000
39.7286	96.0000
39.7378	88.0000
39.7470	79.0000
39.7562	92.0000
39.7655	111.0000
39.7747	89.0000
39.7839	103.0000
39.7931	100.0000
39.8024	108.0000
39.8116	104.0000
39.8208	92.0000
39.8300	105.0000
39.8392	89.0000
39.8485	102.0000
39.8577	96.0000
39.8669	101.0000
39.8761	108.0000
39.8854	95.0000
39.8946	89.0000
39.9038	94.0000
39.9130	83.0000
39.9222	101.0000
39.9315	85.0000
39.9407	100.0000
39.9499	102.0000
39.9591	88.0000
39.9684	89.0000
39.9776	101.0000
39.9868	85.0000
39.9960	100.0000
40.0053	89.0000
40.0145	82.0000
40.0237	98.0000
40.0329	98.0000
40.0421	87.0000
40.0514	97.0000
40.0606	94.0000
40.0698	104.0000
40.0790	78.0000
40.0883	81.0000
40.0975	109.0000
40.1067	89.0000
40.1159	91.0000
40.1251	96.0000
40.1344	88.0000
40.1436	99.0000
40.1528	106.0000
40.1620	96.0000
40.1713	88.0000
40.1805	93.0000
40.1897	98.0000
40.1989	91.0000
40.2082	106.0000
40.2174	107.0000
40.2266	115.0000
40.2358	104.0000
40.2450	98.0000
40.2543	111.0000
40.2635	105.0000
40.2727	107.0000
40.2819	93.0000
40.2912	100.0000
40.3004	91.0000
40.3096	98.0000
40.3188	89.0000
40.3280	98.0000
40.3373	93.0000
40.3465	98.0000
40.3557	95.0000
40.3649	105.0000
40.3742	100.0000
40.3834	90.0000
40.3926	84.0000
40.4018	97.0000
40.4111	79.0000
40.4203	96.0000
40.4295	93.0000
40.4387	85.0000
40.4479	105.0000
40.4572	77.0000
40.4664	89.0000
40.4756	112.0000
40.4848	105.0000
40.4941	88.0000
40.5033	106.0000
40.5125	96.0000
40.5217	88.0000
40.5309	90.0000
40.5402	81.0000
40.5494	98.0000
40.5586	85.0000
40.5678	96.0000
40.5771	83.0000
40.5863	98.0000
40.5955	87.0000
40.6047	123.0000
40.6139	95.0000
40.6232	87.0000
40.6324	99.0000
40.6416	99.0000
40.6508	95.0000
40.6601	100.0000
40.6693	109.0000
40.6785	93.0000
40.6877	96.0000
40.6970	99.0000
40.7062	94.0000
40.7154	99.0000
40.7246	102.0000
40.7338	99.0000
40.7431	111.0000
40.7523	103.0000
40.7615	103.0000
40.7707	95.0000
40.7800	85.0000
40.7892	97.0000
40.7984	104.0000
40.8076	87.0000
40.8168	84.0000
40.8261	87.0000
40.8353	112.0000
40.8445	95.0000
40.8537	101.0000
40.8630	90.0000
40.8722	84.0000
40.8814	89.0000
40.8906	96.0000
40.8999	87.0000
40.9091	101.0000
40.9183	95.0000
40.9275	101.0000
40.9367	118.0000
40.9460	91.0000
40.9552	90.0000
40.9644	88.0000
40.9736	93.0000
40.9829	108.0000
40.9921	119.0000
41.0013	88.0000
41.0105	94.0000
41.0197	93.0000
41.0290	90.0000
41.0382	107.0000
41.0474	104.0000
41.0566	79.0000
41.0659	88.0000
41.0751	89.0000
41.0843	105.0000
41.0935	112.0000
41.1027	90.0000
41.1120	108.0000
41.1212	73.0000
41.1304	80.0000
41.1396	105.0000
41.1489	101.0000
41.1581	91.0000
41.1673	86.0000
41.1765	94.0000
41.1858	85.0000
41.1950	109.0000
41.2042	110.0000
41.2134	99.0000
41.2226	88.0000
41.2319	87.0000
41.2411	108.0000
41.2503	94.0000
41.2595	91.0000
41.2688	98.0000
41.2780	105.0000
41.2872	100.0000
41.2964	117.0000
41.3056	110.0000
41.3149	91.0000
41.3241	103.0000
41.3333	104.0000
41.3425	101.0000
41.3518	78.0000
41.3610	93.0000
41.3702	104.0000
41.3794	97.0000
41.3887	104.0000
41.3979	76.0000
41.4071	99.0000
41.4163	78.0000
41.4255	86.0000
41.4348	86.0000
41.4440	87.0000
41.4532	87.0000
41.4624	101.0000
41.4717	91.0000
41.4809	87.0000
41.4901	93.0000
41.4993	97.0000
41.5085	99.0000
41.5178	93.0000
41.5270	85.0000
41.5362	82.0000
41.5454	123.0000
41.5547	120.0000
41.5639	88.0000
41.5731	104.0000
41.5823	94.0000
41.5915	100.0000
41.6008	94.0000
41.6100	75.0000
41.6192	101.0000
41.6284	106.0000
41.6377	104.0000
41.6469	82.0000
41.6561	104.0000
41.6653	98.0000
41.6746	99.0000
41.6838	104.0000
41.6930	78.0000
41.7022	111.0000
41.7114	79.0000
41.7207	81.0000
41.7299	111.0000
41.7391	96.0000
41.7483	103.0000
41.7576	95.0000
41.7668	101.0000
41.7760	101.0000
41.7852	107.0000
41.7944	100.0000
41.8037	91.0000
41.8129	96.0000
41.8221	91.0000
41.8313	115.0000
41.8406	92.0000
41.8498	101.0000
41.8590	102.0000
41.8682	103.0000
41.8775	103.0000
41.8867	107.0000
41.8959	110.0000
41.9051	99.0000
41.9143	104.0000
41.9236	92.0000
41.9328	102.0000
41.9420	89.0000
41.9512	96.0000
41.9605	95.0000
41.9697	88.0000
41.9789	101.0000
41.9881	91.0000
41.9973	102.0000
42.0066	78.0000
42.0158	101.0000
42.0250	109.0000
42.0342	98.0000
42.0435	106.0000
42.0527	105.0000
42.0619	90.0000
42.0711	88.0000
42.0804	92.0000
42.0896	92.0000
42.0988	86.0000
42.1080	100.0000
42.1172	86.0000
42.1265	100.0000
42.1357	106.0000
42.1449	94.0000
42.1541	107.0000
42.1634	84.0000
42.1726	100.0000
42.1818	105.0000
42.1910	81.0000
42.2002	95.0000
42.2095	103.0000
42.2187	85.0000
42.2279	106.0000
42.2371	118.0000
42.2464	99.0000
42.2556	97.0000
42.2648	102.0000
42.2740	101.0000
42.2832	100.0000
42.2925	80.0000
42.3017	91.0000
42.3109	104.0000
42.3201	93.0000
42.3294	95.0000
42.3386	103.0000
42.3478	86.0000
42.3570	103.0000
42.3663	99.0000
42.3755	100.0000
42.3847	114.0000
42.3939	94.0000
42.4031	104.0000
42.4124	111.0000
42.4216	86.0000
42.4308	102.0000
42.4400	97.0000
42.4493	90.0000
42.4585	95.0000
42.4677	88.0000
42.4769	99.0000
42.4861	90.0000
42.4954	89.0000
42.5046	108.0000
42.5138	84.0000
42.5230	93.0000
42.5323	98.0000
42.5415	111.0000
42.5507	94.0000
42.5599	89.0000
42.5692	92.0000
42.5784	85.0000
42.5876	103.0000
42.5968	101.0000
42.6060	104.0000
42.6153	119.0000
42.6245	95.0000
42.6337	81.0000
42.6429	105.0000
42.6522	95.0000
42.6614	76.0000
42.6706	98.0000
42.6798	106.0000
42.6890	117.0000
42.6983	91.0000
42.7075	106.0000
42.7167	106.0000
42.7259	92.0000
42.7352	94.0000
42.7444	87.0000
42.7536	109.0000
42.7628	103.0000
42.7720	94.0000
42.7813	105.0000
42.7905	111.0000
42.7997	102.0000
42.8089	99.0000
42.8182	92.0000
42.8274	110.0000
42.8366	93.0000
42.8458	85.0000
42.8551	96.0000
42.8643	94.0000
42.8735	93.0000
42.8827	91.0000
42.8919	81.0000
42.9012	100.0000
42.9104	92.0000
42.9196	85.0000
42.9288	98.0000
42.9381	91.0000
42.9473	92.0000
42.9565	96.0000
42.9657	111.0000
42.9749	84.0000
42.9842	85.0000
42.9934	110.0000
43.0026	98.0000
43.0118	99.0000
43.0211	100.0000
43.0303	91.0000
43.0395	98.0000
43.0487	85.0000
43.0580	102.0000
43.0672	99.0000
43.0764	85.0000
43.0856	79.0000
43.0948	87.0000
43.1041	99.0000
43.1133	93.0000
43.1225	109.0000
43.1317	99.0000
43.1410	92.0000
43.1502	100.0000
43.1594	89.0000
43.1686	106.0000
43.1778	109.0000
43.1871	84.0000
43.1963	115.0000
43.2055	95.0000
43.2147	84.0000
43.2240	104.0000
43.2332	95.0000
43.2424	90.0000
43.2516	114.0000
43.2609	81.0000
43.2701	103.0000
43.2793	94.0000
43.2885	102.0000
43.2977	95.0000
43.3070	104.0000
43.3162	113.0000
43.3254	124.0000
43.3346	110.0000
43.3439	125.0000
43.3531	141.0000
43.3623	185.0000
43.3715	218.0000
43.3807	251.0000
43.3900	253.0000
43.3992	238.0000
43.4084	244.0000
43.4176	212.0000
43.4269	180.0000
43.4361	154.0000
43.4453	127.0000
43.4545	142.0000
43.4637	125.0000
43.4730	107.0000
43.4822	128.0000
43.4914	113.0000
43.5006	110.0000
43.5099	97.0000
43.5191	97.0000
43.5283	93.0000
43.5375	109.0000
43.5468	95.0000
43.5560	90.0000
43.5652	109.0000
43.5744	102.0000
43.5836	90.0000
43.5929	85.0000
43.6021	110.0000
43.6113	92.0000
43.6205	103.0000
43.6298	127.0000
43.6390	146.0000
43.6482	167.0000
43.6574	174.0000
43.6666	193.0000
43.6759	163.0000
43.6851	140.0000
43.6943	141.0000
43.7035	120.0000
43.7128	101.0000
43.7220	118.0000
43.7312	106.0000
43.7404	97.0000
43.7497	101.0000
43.7589	101.0000
43.7681	87.0000
43.7773	87.0000
43.7865	97.0000
43.7958	100.0000
43.8050	86.0000
43.8142	104.0000
43.8234	103.0000
43.8327	100.0000
43.8419	103.0000
43.8511	79.0000
43.8603	85.0000
43.8695	92.0000
43.8788	96.0000
43.8880	90.0000
43.8972	92.0000
43.9064	117.0000
43.9157	83.0000
43.9249	106.0000
43.9341	90.0000
43.9433	71.0000
43.9525	82.0000
43.9618	95.0000
43.9710	93.0000
43.9802	91.0000
43.9894	90.0000
43.9987	97.0000
44.0079	87.0000
44.0171	82.0000
44.0263	83.0000
44.0356	91.0000
44.0448	105.0000
44.0540	100.0000
44.0632	94.0000
44.0724	97.0000
44.0817	92.0000
44.0909	82.0000
44.1001	94.0000
44.1093	99.0000
44.1186	94.0000
44.1278	94.0000
44.1370	82.0000
44.1462	109.0000
44.1554	94.0000
44.1647	100.0000
44.1739	110.0000
44.1831	92.0000
44.1923	88.0000
44.2016	95.0000
44.2108	112.0000
44.2200	87.0000
44.2292	104.0000
44.2385	73.0000
44.2477	109.0000
44.2569	88.0000
44.2661	93.0000
44.2753	94.0000
44.2846	105.0000
44.2938	90.0000
44.3030	99.0000
44.3122	90.0000
44.3215	99.0000
44.3307	85.0000
44.3399	90.0000
44.3491	81.0000
44.3583	110.0000
44.3676	96.0000
44.3768	102.0000
44.3860	87.0000
44.3952	88.0000
44.4045	111.0000
44.4137	99.0000
44.4229	80.0000
44.4321	88.0000
44.4414	94.0000
44.4506	94.0000
44.4598	100.0000
44.4690	100.0000
44.4782	97.0000
44.4875	93.0000
44.4967	85.0000
44.5059	92.0000
44.5151	95.0000
44.5244	100.0000
44.5336	95.0000
44.5428	80.0000
44.5520	93.0000
44.5612	82.0000
44.5705	98.0000
44.5797	89.0000
44.5889	88.0000
44.5981	97.0000
44.6074	84.0000
44.6166	98.0000
44.6258	97.0000
44.6350	105.0000
44.6442	89.0000
44.6535	82.0000
44.6627	83.0000
44.6719	88.0000
44.6811	85.0000
44.6904	97.0000
44.6996	101.0000
44.7088	81.0000
44.7180	102.0000
44.7273	87.0000
44.7365	90.0000
44.7457	87.0000
44.7549	99.0000
44.7641	124.0000
44.7734	94.0000
44.7826	89.0000
44.7918	81.0000
44.8010	104.0000
44.8103	101.0000
44.8195	87.0000
44.8287	101.0000
44.8379	81.0000
44.8471	87.0000
44.8564	98.0000
44.8656	94.0000
44.8748	87.0000
44.8840	98.0000
44.8933	82.0000
44.9025	90.0000
44.9117	85.0000
44.9209	79.0000
44.9302	95.0000
44.9394	81.0000
44.9486	103.0000
44.9578	68.0000
44.9670	88.0000
44.9763	56.0000
44.9855	97.0000
44.9947	95.0000
45.0039	85.0000
45.0132	99.0000
45.0224	82.0000
45.0316	103.0000
45.0408	88.0000
45.0500	90.0000
45.0593	99.0000
45.0685	79.0000
45.0777	91.0000
45.0869	82.0000
45.0962	74.0000
45.1054	107.0000
45.1146	108.0000
45.1238	106.0000
45.1330	86.0000
45.1423	89.0000
45.1515	77.0000
45.1607	88.0000
45.1699	84.0000
45.1792	74.0000
45.1884	92.0000
45.1976	99.0000
45.2068	91.0000
45.2161	93.0000
45.2253	79.0000
45.2345	75.0000
45.2437	99.0000
45.2529	93.0000
45.2622	103.0000
45.2714	92.0000
45.2806	87.0000
45.2898	90.0000
45.2991	75.0000
45.3083	99.0000
45.3175	85.0000
45.3267	89.0000
45.3359	106.0000
45.3452	79.0000
45.3544	87.0000
45.3636	99.0000
45.3728	98.0000
45.3821	90.0000
45.3913	81.0000
45.4005	91.0000
45.4097	80.0000
45.4190	95.0000
45.4282	103.0000
45.4374	82.0000
45.4466	96.0000
45.4558	81.0000
45.4651	83.0000
45.4743	74.0000
45.4835	74.0000
45.4927	93.0000
45.5020	95.0000
45.5112	85.0000
45.5204	90.0000
45.5296	83.0000
45.5388	76.0000
45.5481	80.0000
45.5573	73.0000
45.5665	80.0000
45.5757	68.0000
45.5850	87.0000
45.5942	81.0000
45.6034	81.0000
45.6126	89.0000
45.6219	86.0000
45.6311	81.0000
45.6403	81.0000
45.6495	86.0000
45.6587	79.0000
45.6680	90.0000
45.6772	93.0000
45.6864	74.0000
45.6956	74.0000
45.7049	64.0000
45.7141	96.0000
45.7233	87.0000
45.7325	105.0000
45.7417	99.0000
45.7510	83.0000
45.7602	82.0000
45.7694	89.0000
45.7786	68.0000
45.7879	87.0000
45.7971	84.0000
45.8063	84.0000
45.8155	66.0000
45.8247	75.0000
45.8340	85.0000
45.8432	86.0000
45.8524	89.0000
45.8616	70.0000
45.8709	100.0000
45.8801	95.0000
45.8893	81.0000
45.8985	74.0000
45.9078	90.0000
45.9170	84.0000
45.9262	64.0000
45.9354	80.0000
45.9446	88.0000
45.9539	88.0000
45.9631	77.0000
45.9723	102.0000
45.9815	83.0000
45.9908	63.0000
46.0000	90.0000
46.0092	93.0000
46.0184	82.0000
46.0276	81.0000
46.0369	95.0000
46.0461	63.0000
46.0553	61.0000
46.0645	83.0000
46.0738	86.0000
46.0830	71.0000
46.0922	90.0000
46.1014	88.0000
46.1107	70.0000
46.1199	84.0000
46.1291	74.0000
46.1383	100.0000
46.1475	75.0000
46.1568	71.0000
46.1660	86.0000
46.1752	61.0000
46.1844	81.0000
46.1937	96.0000
46.2029	86.0000
46.2121	79.0000
46.2213	76.0000
46.2305	88.0000
46.2398	90.0000
46.2490	85.0000
46.2582	91.0000
46.2674	93.0000
46.2767	91.0000
46.2859	80.0000
46.2951	97.0000
46.3043	92.0000
46.3135	87.0000
46.3228	74.0000
46.3320	81.0000
46.3412	73.0000
46.3504	83.0000
46.3597	80.0000
46.3689	100.0000
46.3781	66.0000
46.3873	76.0000
46.3966	70.0000
46.4058	85.0000
46.4150	92.0000
46.4242	89.0000
46.4334	67.0000
46.4427	72.0000
46.4519	87.0000
46.4611	73.0000
46.4703	88.0000
46.4796	102.0000
46.4888	81.0000
46.4980	72.0000
46.5072	79.0000
46.5164	83.0000
46.5257	68.0000
46.5349	78.0000
46.5441	74.0000
46.5533	84.0000
46.5626	86.0000
46.5718	76.0000
46.5810	78.0000
46.5902	91.0000
46.5995	73.0000
46.6087	80.0000
46.6179	82.0000
46.6271	89.0000
46.6363	73.0000
46.6456	89.0000
46.6548	87.0000
46.6640	91.0000
46.6732	74.0000
46.6825	81.0000
46.6917	77.0000
46.7009	71.0000
46.7101	70.0000
46.7193	95.0000
46.7286	89.0000
46.7378	75.0000
46.7470	71.0000
46.7562	75.0000
46.7655	82.0000
46.7747	73.0000
46.7839	75.0000
46.7931	68.0000
46.8024	84.0000
46.8116	81.0000
46.8208	80.0000
46.8300	79.0000
46.8392	90.0000
46.8485	77.0000
46.8577	68.0000
46.8669	70.0000
46.8761	70.0000
46.8854	80.0000
46.8946	82.0000
46.9038	65.0000
46.9130	70.0000
46.9222	84.0000
46.9315	68.0000
46.9407	71.0000
46.9499	71.0000
46.9591	72.0000
46.9684	80.0000
46.9776	64.0000
46.9868	84.0000
46.9960	77.0000
47.0052	78.0000
47.0145	68.0000
47.0237	64.0000
47.0329	79.0000
47.0421	73.0000
47.0514	63.0000
47.0606	64.0000
47.0698	68.0000
47.0790	75.0000
47.0883	75.0000
47.0975	84.0000
47.1067	79.0000
47.1159	68.0000
47.1251	77.0000
47.1344	84.0000
47.1436	72.0000
47.1528	79.0000
47.1620	77.0000
47.1713	83.0000
47.1805	54.0000
47.1897	70.0000
47.1989	68.0000
47.2081	75.0000
47.2174	79.0000
47.2266	70.0000
47.2358	80.0000
47.2450	62.0000
47.2543	87.0000
47.2635	79.0000
47.2727	87.0000
47.2819	68.0000
47.2912	75.0000
47.3004	86.0000
47.3096	67.0000
47.3188	80.0000
47.3280	91.0000
47.3373	82.0000
47.3465	80.0000
47.3557	74.0000
47.3649	83.0000
47.3742	66.0000
47.3834	67.0000
47.3926	81.0000
47.4018	76.0000
47.4110	66.0000
47.4203	76.0000
47.4295	71.0000
47.4387	72.0000
47.4479	77.0000
47.4572	78.0000
47.4664	75.0000
47.4756	74.0000
47.4848	62.0000
47.4940	71.0000
47.5033	78.0000
47.5125	74.0000
47.5217	85.0000
47.5309	54.0000
47.5402	77.0000
47.5494	78.0000
47.5586	87.0000
47.5678	78.0000
47.5771	77.0000
47.5863	73.0000
47.5955	95.0000
47.6047	73.0000
47.6139	63.0000
47.6232	78.0000
47.6324	77.0000
47.6416	82.0000
47.6508	70.0000
47.6601	71.0000
47.6693	66.0000
47.6785	70.0000
47.6877	74.0000
47.6969	73.0000
47.7062	86.0000
47.7154	87.0000
47.7246	78.0000
47.7338	70.0000
47.7431	72.0000
47.7523	66.0000
47.7615	76.0000
47.7707	70.0000
47.7800	77.0000
47.7892	79.0000
47.7984	86.0000
47.8076	91.0000
47.8168	69.0000
47.8261	79.0000
47.8353	64.0000
47.8445	93.0000
47.8537	75.0000
47.8630	88.0000
47.8722	78.0000
47.8814	87.0000
47.8906	74.0000
47.8998	70.0000
47.9091	62.0000
47.9183	70.0000
47.9275	91.0000
47.9367	68.0000
47.9460	58.0000
47.9552	57.0000
47.9644	79.0000
47.9736	84.0000
47.9829	62.0000
47.9921	63.0000
48.0013	94.0000
