11.0000	-25.8070
11.0092	1.1459
11.0184	-31.2338
11.0277	5.7205
11.0369	-25.3246
11.0461	-58.5745
11.0553	51.5097
11.0646	18.2611
11.0738	29.1698
11.0830	61.6571
11.0922	31.4004
11.1014	6.7697
11.1107	30.4998
11.1199	-17.0800
11.1291	7.1225
11.1383	2.9476
11.1476	-40.0159
11.1568	-2.7746
11.1660	0.5852
11.1752	2.3746
11.1845	38.3388
11.1937	28.8635
11.2029	51.6921
11.2121	30.0156
11.2213	28.8378
11.2306	90.3199
11.2398	29.0400
11.2490	51.0315
11.2582	30.5280
11.2675	26.9179
11.2767	-3.6236
11.2859	87.6845
11.2951	56.9381
11.3043	6.5485
11.3136	-48.1432
11.3228	-6.8255
11.3320	16.9895
11.3412	3.2373
11.3505	-26.1327
11.3597	0.9355
11.3689	14.3686
11.3781	57.2191
11.3874	86.1192
11.3966	-5.6620
11.4058	63.6257
11.4150	26.6044
11.4242	58.2609
11.4335	50.3427
11.4427	42.0471
11.4519	-14.7146
11.4611	28.3175
11.4704	38.7967
11.4796	2.4915
11.4888	5.1834
11.4980	21.9257
11.5072	7.9311
11.5165	35.3690
11.5257	-6.4723
11.5349	-3.4592
11.5441	23.8320
11.5534	-5.7850
11.5626	20.7922
11.5718	-2.9124
11.5810	42.2236
11.5902	1.0956
11.5995	42.6174
11.6087	17.1723
11.6179	17.0095
11.6271	72.6296
11.6364	12.1901
11.6456	74.7956
11.6548	63.6049
11.6640	37.7312
11.6733	35.2984
11.6825	31.4142
11.6917	32.6709
11.7009	7.1229
11.7101	-2.7634
11.7194	29.4549
11.7286	-39.5701
11.7378	43.5219
11.7470	-17.0322
11.7563	16.1107
11.7655	51.5661
11.7747	-6.0573
11.7839	69.7302
11.7931	10.1823
11.8024	32.2494
11.8116	0.6007
11.8208	0.1902
11.8300	-0.5655
11.8393	-22.2960
11.8485	40.7496
11.8577	-4.4553
11.8669	45.4935
11.8762	13.7473
11.8854	12.9891
11.8946	0.2550
11.9038	0.8849
11.9130	29.9585
11.9223	17.5010
11.9315	3.7494
11.9407	28.6453
11.9499	21.6299
11.9592	55.0925
11.9684	15.3173
11.9776	29.7064
11.9868	27.5704
11.9960	8.8951
12.0053	56.9502
12.0145	-2.1567
12.0237	14.6655
12.0329	16.7432
12.0422	50.2632
12.0514	34.1069
12.0606	1.1145
12.0698	14.9975
12.0791	19.3621
12.0883	6.3272
12.0975	-15.3599
12.1067	41.4161
12.1159	-14.3859
12.1252	-6.7456
12.1344	-19.7190
12.1436	17.6933
12.1528	26.9987
12.1621	28.7139
12.1713	6.1232
12.1805	28.6641
12.1897	20.6874
12.1989	19.1347
12.2082	19.3398
12.2174	1.8904
12.2266	32.3273
12.2358	27.5365
12.2451	39.7502
12.2543	58.8916
12.2635	24.6398
12.2727	91.5566
12.2819	46.5491
12.2912	49.9655
12.3004	20.9330
12.3096	-16.4759
12.3188	56.9930
12.3281	-19.2356
12.3373	14.0689
12.3465	1.5898
12.3557	-12.4025
12.3650	1.0425
12.3742	9.0651
12.3834	72.3263
12.3926	-10.3627
12.4018	38.3929
12.4111	26.2626
12.4203	51.7584
12.4295	23.6992
12.4387	45.9407
12.4480	79.6601
12.4572	5.3456
12.4664	32.4173
12.4756	25.6820
12.4848	39.7956
12.4941	37.4238
12.5033	47.7322
12.5125	25.3661
12.5217	-6.2136
12.5310	20.2894
12.5402	63.1166
12.5494	73.0623
12.5586	34.3680
12.5679	38.8397
12.5771	-7.7546
12.5863	37.6827
12.5955	62.3854
12.6047	5.3894
12.6140	39.2477
12.6232	44.2075
12.6324	45.1779
12.6416	36.8439
12.6509	88.1141
12.6601	56.5279
12.6693	46.3966
12.6785	64.8980
12.6877	47.7336
12.6970	66.9852
12.7062	33.9986
12.7154	34.7837
12.7246	56.0356
12.7339	48.2338
12.7431	52.9789
12.7523	-7.2156
12.7615	55.2484
12.7707	37.2313
12.7800	37.3675
12.7892	70.2683
12.7984	63.6317
12.8076	67.1530
12.8169	67.3278
12.8261	52.7216
12.8353	47.0731
12.8445	92.9916
12.8538	136.7568
12.8630	182.3196
12.8722	164.4485
12.8814	84.9971
12.8906	56.3226
12.8999	48.4789
12.9091	110.4137
12.9183	113.3463
12.9275	107.2451
12.9368	134.1588
12.9460	142.3162
12.9552	219.3242
12.9644	450.9264
12.9736	914.0410
12.9829	1313.6100
12.9921	1291.5745
13.0013	819.4722
13.0105	375.6867
13.0198	172.9305
13.0290	128.8333
13.0382	187.8244
13.0474	167.8375
13.0567	264.2105
13.0659	111.8281
13.0751	23.9427
13.0843	-31.4297
13.0935	37.7150
13.1028	27.1817
13.1120	36.8341
13.1212	17.8509
13.1304	-25.5256
13.1397	-18.1223
13.1489	105.8653
13.1581	138.1577
13.1673	106.9551
13.1765	81.3327
13.1858	95.7461
13.1950	103.9978
13.2042	53.6414
13.2134	107.0070
13.2227	135.6085
13.2319	41.6638
13.2411	54.3515
13.2503	55.2026
13.2596	65.8176
13.2688	2.8677
13.2780	55.9854
13.2872	32.7123
13.2964	16.0842
13.3057	45.7533
13.3149	70.6830
13.3241	50.2659
13.3333	46.7865
13.3426	43.4562
13.3518	50.0730
13.3610	80.5294
13.3702	74.5438
13.3794	45.5401
13.3887	67.6126
13.3979	70.6308
13.4071	55.1754
13.4163	47.1565
13.4256	43.0437
13.4348	53.6133
13.4440	64.3253
13.4532	-6.2392
13.4624	42.7462
13.4717	49.7472
13.4809	31.1102
13.4901	53.4506
13.4993	63.4009
13.5086	46.5954
13.5178	79.6116
13.5270	46.3156
13.5362	34.5754
13.5455	56.2271
13.5547	27.6098
13.5639	34.7581
13.5731	-1.3712
13.5823	62.3730
13.5916	63.5523
13.6008	15.5053
13.6100	45.4086
13.6192	58.1903
13.6285	23.5911
13.6377	16.8845
13.6469	62.9711
13.6561	45.4206
13.6653	8.6018
13.6746	28.3924
13.6838	40.0951
13.6930	35.8046
13.7022	-3.6414
13.7115	36.5821
13.7207	82.8637
13.7299	9.4957
13.7391	53.5329
13.7484	33.1351
13.7576	81.7454
13.7668	36.1923
13.7760	55.4958
13.7852	52.9997
13.7945	55.4884
13.8037	11.9073
13.8129	111.1967
13.8221	42.4203
13.8314	33.1411
13.8406	-4.6368
13.8498	48.2143
13.8590	8.2738
13.8682	48.9814
13.8775	61.2741
13.8867	52.1721
13.8959	-2.9615
13.9051	19.9257
13.9144	35.0915
13.9236	38.5554
13.9328	5.0911
13.9420	36.3782
13.9512	36.8398
13.9605	39.0834
13.9697	57.3831
13.9789	62.6300
13.9881	34.7288
13.9974	57.8938
14.0066	17.5139
14.0158	19.2345
14.0250	-12.0911
14.0343	37.1202
14.0435	15.5162
14.0527	-8.6321
14.0619	-21.2454
14.0711	39.4421
14.0804	0.8497
14.0896	0.1256
14.0988	61.4698
14.1080	21.4706
14.1173	9.1404
14.1265	-33.5909
14.1357	23.4335
14.1449	-0.4428
14.1541	23.5443
14.1634	20.5045
14.1726	29.5082
14.1818	29.2393
14.1910	36.6918
14.2003	26.2944
14.2095	19.2671
14.2187	44.7480
14.2279	21.1860
14.2372	44.3360
14.2464	12.7709
14.2556	-5.3280
14.2648	-5.4103
14.2740	10.5882
14.2833	26.9720
14.2925	56.4348
14.3017	11.0706
14.3109	19.0493
14.3202	-14.2775
14.3294	-4.7061
14.3386	-17.7193
14.3478	23.2561
14.3570	6.9075
14.3663	6.2183
14.3755	43.6580
14.3847	41.8683
14.3939	-1.3576
14.4032	28.6582
14.4124	17.6802
14.4216	-1.4900
14.4308	31.6876
14.4401	18.1093
14.4493	25.4575
14.4585	-0.8272
14.4677	-9.8664
14.4769	6.0364
14.4862	26.3445
14.4954	22.0800
14.5046	-7.0490
14.5138	17.0822
14.5231	-3.7363
14.5323	40.4206
14.5415	38.0693
14.5507	52.5246
14.5599	29.7012
14.5692	51.1999
14.5784	1.9822
14.5876	-1.0342
14.5968	7.2966
14.6061	54.3115
14.6153	0.3721
14.6245	6.4864
14.6337	9.6212
14.6429	5.3539
14.6522	33.3071
14.6614	26.8467
14.6706	53.8279
14.6798	2.5885
14.6891	41.6554
14.6983	20.1928
14.7075	38.5945
14.7167	5.4968
14.7260	5.6412
14.7352	40.6697
14.7444	-3.0280
14.7536	28.0881
14.7628	3.7515
14.7721	17.3019
14.7813	17.7298
14.7905	30.7339
14.7997	38.7130
14.8090	33.7149
14.8182	12.0645
14.8274	49.1337
14.8366	8.0028
14.8458	11.4124
14.8551	23.9643
14.8643	18.3418
14.8735	28.9869
14.8827	-23.4304
14.8920	10.5813
14.9012	-1.5708
14.9104	62.9961
14.9196	4.5973
14.9289	39.7195
14.9381	43.5152
14.9473	-10.4545
14.9565	43.1924
14.9657	6.3039
14.9750	16.8898
14.9842	4.5120
14.9934	-0.5524
15.0026	-36.0748
15.0119	25.9827
15.0211	-17.6375
15.0303	28.1479
15.0395	-8.1220
15.0487	9.7346
15.0580	29.4820
15.0672	-1.9281
15.0764	23.2535
15.0856	38.8928
15.0949	-1.0447
15.1041	-14.2860
15.1133	-7.2278
15.1225	7.9681
15.1317	35.3153
15.1410	13.8334
15.1502	9.1882
15.1594	12.5453
15.1686	-13.2447
15.1779	16.7921
15.1871	11.5407
15.1963	39.2210
15.2055	50.0593
15.2148	29.8316
15.2240	3.1455
15.2332	-4.8064
15.2424	4.9518
15.2516	4.7566
15.2609	5.0383
15.2701	28.7740
15.2793	44.6336
15.2885	11.6671
15.2978	11.5483
15.3070	9.5952
15.3162	7.2164
15.3254	51.0560
15.3346	8.1277
15.3439	26.4311
15.3531	5.7902
15.3623	5.2767
15.3715	40.5904
15.3808	7.5037
15.3900	-2.5320
15.3992	-7.1566
15.4084	40.4951
15.4177	4.6188
15.4269	26.6397
15.4361	21.6156
15.4453	19.9727
15.4545	1.0229
15.4638	45.3933
15.4730	14.4990
15.4822	20.6846
15.4914	-3.1019
15.5007	18.8937
15.5099	-5.7021
15.5191	1.8358
15.5283	4.4283
15.5375	-6.9389
15.5468	14.3370
15.5560	-2.9857
15.5652	41.2517
15.5744	61.5561
15.5837	21.6674
15.5929	8.3057
15.6021	15.7508
15.6113	38.2649
15.6206	40.8990
15.6298	-19.6500
15.6390	7.3994
15.6482	18.5519
15.6574	0.2072
15.6667	-3.5937
15.6759	12.4405
15.6851	32.3447
15.6943	-8.8332
15.7036	7.7207
15.7128	-17.0513
15.7220	19.8747
15.7312	8.6603
15.7404	4.1109
15.7497	15.9615
15.7589	35.7884
15.7681	10.6964
15.7773	-16.9983
15.7866	-9.7379
15.7958	17.7780
15.8050	22.0877
15.8142	-2.4346
15.8234	22.6121
15.8327	43.6188
15.8419	28.3776
15.8511	17.5710
15.8603	-37.4298
15.8696	52.2890
15.8788	29.3283
15.8880	35.3332
15.8972	32.7392
15.9065	41.1954
15.9157	74.9974
15.9249	37.1265
15.9341	-14.9511
15.9433	-5.1129
15.9526	30.5203
15.9618	17.1187
15.9710	-1.6054
15.9802	12.8029
15.9895	-25.5235
15.9987	24.4525
16.0079	20.4180
16.0171	-20.3098
16.0263	17.4257
16.0356	41.9531
16.0448	14.4405
16.0540	-2.3532
16.0632	17.0072
16.0725	21.2618
16.0817	6.3968
16.0909	35.4034
16.1001	29.8204
16.1094	26.1911
16.1186	8.2904
16.1278	-11.2217
16.1370	-15.2219
16.1462	22.7626
16.1555	23.3782
16.1647	22.2124
16.1739	14.2843
16.1831	30.8079
16.1924	6.3622
16.2016	-8.7327
16.2108	-5.8518
16.2200	3.8235
16.2292	36.2983
16.2385	56.5607
16.2477	-36.5072
16.2569	16.9792
16.2661	39.1573
16.2754	-14.3091
16.2846	10.3972
16.2938	62.6101
16.3030	60.9079
16.3122	44.9776
16.3215	30.3822
16.3307	29.4752
16.3399	9.5789
16.3491	-3.4752
16.3584	13.5899
16.3676	-2.1610
16.3768	56.0712
16.3860	1.9247
16.3953	-14.0484
16.4045	-7.2045
16.4137	6.8978
16.4229	6.9751
16.4321	29.8081
16.4414	2.3211
16.4506	31.0952
16.4598	15.1855
16.4690	5.3069
16.4783	17.0779
16.4875	11.9278
16.4967	23.2330
16.5059	21.4897
16.5151	46.8644
16.5244	26.3389
16.5336	5.9698
16.5428	-12.0866
16.5520	7.9039
16.5613	-1.3133
16.5705	27.5310
16.5797	37.9393
16.5889	14.8565
16.5982	0.1920
16.6074	7.9941
16.6166	-2.2228
16.6258	10.2439
16.6350	31.5479
16.6443	27.3895
16.6535	38.7227
16.6627	41.4071
16.6719	36.8642
16.6812	8.7989
16.6904	15.3682
16.6996	12.5205
16.7088	20.2053
16.7180	7.2847
16.7273	18.2920
16.7365	-10.8488
16.7457	-15.5450
16.7549	33.1124
16.7642	-26.9325
16.7734	17.5940
16.7826	16.6903
16.7918	6.0323
16.8011	20.6263
16.8103	20.2620
16.8195	-3.3989
16.8287	14.9386
16.8379	23.7360
16.8472	24.0403
16.8564	11.7917
16.8656	44.2728
16.8748	-6.7127
16.8841	44.2313
16.8933	-12.5870
16.9025	19.6252
16.9117	-0.6212
16.9209	29.2301
16.9302	-13.2587
16.9394	8.1229
16.9486	-7.2392
16.9578	23.3503
16.9671	19.5376
16.9763	29.3016
16.9855	3.7998
16.9947	11.0891
17.0039	-3.5043
17.0132	38.5302
17.0224	4.3161
17.0316	32.3149
17.0408	-4.1133
17.0501	22.3478
17.0593	-2.0204
17.0685	30.7148
17.0777	7.6030
17.0870	20.8139
17.0962	-7.8603
17.1054	34.2345
17.1146	0.2774
17.1238	7.4838
17.1331	-7.4629
17.1423	18.8645
17.1515	56.1535
17.1607	5.8884
17.1700	17.6670
17.1792	-0.2258
17.1884	51.6741
17.1976	50.2182
17.2068	-20.9345
17.2161	0.8403
17.2253	13.9178
17.2345	23.2186
17.2437	8.0672
17.2530	19.6645
17.2622	19.4725
17.2714	13.4416
17.2806	-20.4216
17.2899	15.3498
17.2991	-10.0794
17.3083	22.0022
17.3175	29.6526
17.3267	24.8770
17.3360	-14.1109
17.3452	34.0419
17.3544	4.8908
17.3636	24.9891
17.3729	-6.8403
17.3821	2.6186
17.3913	5.7439
17.4005	6.7717
17.4097	7.5546
17.4190	7.7878
17.4282	-34.2236
17.4374	13.8440
17.4466	-23.9132
17.4559	2.1312
17.4651	-8.9920
17.4743	27.9116
17.4835	-2.5271
17.4927	-2.2466
17.5020	36.0988
17.5112	-2.9786
17.5204	49.1406
17.5296	30.6204
17.5389	7.3550
17.5481	39.0830
17.5573	29.3752
17.5665	57.3471
17.5758	1.3731
17.5850	-1.5341
17.5942	-3.7975
17.6034	18.1731
17.6126	3.0907
17.6219	13.6352
17.6311	13.8221
17.6403	-18.6149
17.6495	-4.7715
17.6588	4.0915
17.6680	2.9282
17.6772	-14.4031
17.6864	25.7404
17.6956	-5.5419
17.7049	34.5306
17.7141	-5.3075
17.7233	18.0393
17.7325	7.0016
17.7418	45.8911
17.7510	3.6300
17.7602	13.9731
17.7694	25.5938
17.7787	26.1426
17.7879	-20.7946
17.7971	34.5679
17.8063	42.8426
17.8155	-24.9540
17.8248	-12.8143
17.8340	-15.2784
17.8432	21.6632
17.8524	-7.4573
17.8617	38.9583
17.8709	19.9697
17.8801	-2.1054
17.8893	-8.2729
17.8985	25.2138
17.9078	-2.5283
17.9170	-3.7501
17.9262	23.5009
17.9354	32.3352
17.9447	57.7585
17.9539	8.3054
17.9631	-2.2944
17.9723	-4.9222
17.9816	3.0731
17.9908	16.9219
18.0000	6.8989
18.0092	-11.4479
18.0184	18.5310
18.0277	7.2664
18.0369	-12.6534
18.0461	-9.0884
18.0553	14.3633
18.0646	-7.4142
18.0738	27.4839
18.0830	48.2945
18.0922	24.1182
18.1014	8.5696
18.1107	23.0650
18.1199	8.1296
18.1291	-7.9258
18.1383	10.1255
18.1476	8.3005
18.1568	29.9143
18.1660	17.6275
18.1752	12.9882
18.1844	-7.9891
18.1937	-19.3835
18.2029	23.5201
18.2121	-21.1371
18.2213	-5.9771
18.2306	0.4944
18.2398	15.3504
18.2490	11.4578
18.2582	22.4087
18.2675	9.7452
18.2767	-4.2535
18.2859	21.1565
18.2951	45.4554
18.3043	34.2979
18.3136	-0.0610
18.3228	51.4430
18.3320	16.3339
18.3412	5.9454
18.3505	19.8616
18.3597	16.2478
18.3689	9.3861
18.3781	1.8305
18.3873	33.7899
18.3966	-17.0228
18.4058	-7.0897
18.4150	14.7191
18.4242	10.6075
18.4335	18.9599
18.4427	-2.7209
18.4519	-3.9350
18.4611	6.8234
18.4704	37.4739
18.4796	17.7176
18.4888	-9.5104
18.4980	-7.2207
18.5072	10.3520
18.5165	-0.3708
18.5257	-5.0924
18.5349	20.6724
18.5441	-6.2320
18.5534	6.7065
18.5626	-15.5646
18.5718	13.4032
18.5810	-11.6344
18.5902	1.7543
18.5995	6.5268
18.6087	34.8807
18.6179	-15.9553
18.6271	-1.9837
18.6364	4.1974
18.6456	-0.6215
18.6548	24.9415
18.6640	0.9400
18.6732	44.2709
18.6825	13.1496
18.6917	17.9474
18.7009	23.0110
18.7101	-2.5534
18.7194	-19.9509
18.7286	6.0852
18.7378	20.5239
18.7470	30.2909
18.7563	33.9717
18.7655	22.4723
18.7747	7.0236
18.7839	-6.6815
18.7931	12.6936
18.8024	12.8903
18.8116	17.5287
18.8208	27.6278
18.8300	35.9288
18.8393	39.4674
18.8485	2.1326
18.8577	8.4614
18.8669	7.5156
18.8761	28.2310
18.8854	8.2000
18.8946	14.4935
18.9038	1.0698
18.9130	0.9209
18.9223	13.7133
18.9315	0.0349
18.9407	5.6228
18.9499	9.8918
18.9592	-4.9487
18.9684	48.3292
18.9776	16.1852
18.9868	0.2602
18.9960	-13.6486
19.0053	8.8864
19.0145	6.7298
19.0237	27.3107
19.0329	31.4171
19.0422	28.4475
19.0514	34.8837
19.0606	6.5442
19.0698	6.8963
19.0790	48.1511
19.0883	20.6802
19.0975	3.2586
19.1067	28.8779
19.1159	8.2179
19.1252	12.3092
19.1344	9.8522
19.1436	-3.8985
19.1528	-12.3852
19.1621	-14.7730
19.1713	28.7248
19.1805	1.3402
19.1897	33.5065
19.1989	2.6224
19.2082	2.4438
19.2174	-2.5554
19.2266	-23.2212
19.2358	39.7920
19.2451	13.8519
19.2543	5.9307
19.2635	21.9029
19.2727	2.1179
19.2819	48.0620
19.2912	-11.8026
19.3004	29.8018
19.3096	19.9829
19.3188	32.8384
19.3281	7.5232
19.3373	28.0797
19.3465	46.0308
19.3557	-3.6870
19.3649	36.8171
19.3742	29.6898
19.3834	-14.9618
19.3926	8.9840
19.4018	5.3285
19.4111	0.5724
19.4203	17.4621
19.4295	34.8572
19.4387	-1.6536
19.4480	28.2576
19.4572	24.2294
19.4664	-18.3889
19.4756	25.0409
19.4848	-9.9622
19.4941	4.6994
19.5033	32.2194
19.5125	23.4303
19.5217	13.2702
19.5310	24.0070
19.5402	5.5218
19.5494	25.3930
19.5586	31.2849
19.5678	-13.5940
19.5771	8.5527
19.5863	18.0417
19.5955	-2.6073
19.6047	44.3674
19.6140	1.4593
19.6232	47.2429
19.6324	28.6157
19.6416	-17.1197
19.6509	21.4412
19.6601	17.4658
19.6693	-15.0877
19.6785	14.1064
19.6877	36.0369
19.6970	-3.7961
19.7062	44.8608
19.7154	35.3706
19.7246	16.6610
19.7339	18.5606
19.7431	3.8564
19.7523	12.0785
19.7615	40.7218
19.7707	-2.0546
19.7800	-1.4517
19.7892	30.3763
19.7984	12.7197
19.8076	7.6688
19.8169	1.1740
19.8261	27.0519
19.8353	36.1954
19.8445	-3.8052
19.8537	3.9046
19.8630	17.5935
19.8722	18.3817
19.8814	-18.0108
19.8906	36.9984
19.8999	12.7766
19.9091	30.5496
19.9183	25.6115
19.9275	25.8330
19.9368	9.9594
19.9460	5.1534
19.9552	15.4796
19.9644	14.9066
19.9736	18.5532
19.9829	19.1986
19.9921	23.7772
20.0013	33.7919
20.0105	0.2652
20.0198	35.2795
20.0290	-0.7052
20.0382	9.5944
20.0474	21.9884
20.0566	-12.7489
20.0659	27.7922
20.0751	42.2850
20.0843	1.3712
20.0935	0.0419
20.1028	-9.6230
20.1120	21.5785
20.1212	-11.7236
20.1304	-12.5316
20.1397	19.9116
20.1489	18.4337
20.1581	-8.4214
20.1673	-2.2781
20.1765	21.3386
20.1858	-10.9243
20.1950	12.0487
20.2042	2.0533
20.2134	14.8142
20.2227	37.3287
20.2319	-1.6225
20.2411	-2.5657
20.2503	-24.7462
20.2595	30.7806
20.2688	26.6954
20.2780	23.6142
20.2872	17.4767
20.2964	-22.0588
20.3057	-3.3187
20.3149	35.6669
20.3241	36.3708
20.3333	6.4752
20.3426	29.2421
20.3518	11.3259
20.3610	7.5551
20.3702	31.2287
20.3794	2.9524
20.3887	20.3468
20.3979	-1.8673
20.4071	11.5530
20.4163	10.8276
20.4256	-3.3310
20.4348	-0.0424
20.4440	-12.1995
20.4532	-12.4696
20.4624	7.7498
20.4717	-10.1017
20.4809	17.2499
20.4901	27.2904
20.4993	-26.6035
20.5086	-6.6607
20.5178	40.2725
20.5270	37.8749
20.5362	1.5639
20.5454	31.0739
20.5547	43.1634
20.5639	-17.9489
20.5731	36.4922
20.5823	39.1759
20.5916	36.3901
20.6008	10.6725
20.6100	10.7524
20.6192	12.0196
20.6285	23.8049
20.6377	14.5249
20.6469	31.9850
20.6561	2.8095
20.6653	15.3117
20.6746	0.9707
20.6838	8.5518
20.6930	48.9483
20.7022	-0.8013
20.7115	-11.1242
20.7207	5.2681
20.7299	8.7271
20.7391	13.5426
20.7483	10.2497
20.7576	4.8221
20.7668	35.2898
20.7760	27.8498
20.7852	7.1187
20.7945	12.9308
20.8037	19.9464
20.8129	21.5967
20.8221	9.0627
20.8314	19.5117
20.8406	-2.8263
20.8498	26.7631
20.8590	9.9397
20.8682	4.6104
20.8775	2.5706
20.8867	-10.8506
20.8959	2.3849
20.9051	10.6210
20.9144	-18.8544
20.9236	-7.7945
20.9328	8.3365
20.9420	22.9822
20.9512	20.1056
20.9605	13.0008
20.9697	28.5736
20.9789	4.9225
20.9881	9.4146
20.9974	25.8832
21.0066	-8.1526
21.0158	39.6501
21.0250	43.5084
21.0342	14.0258
21.0435	28.1716
21.0527	12.4560
21.0619	14.6151
21.0711	-20.6174
21.0804	26.1201
21.0896	8.6475
21.0988	-0.2257
21.1080	-11.5634
21.1173	-0.1669
21.1265	25.5562
21.1357	-28.1133
21.1449	-2.4662
21.1541	0.5998
21.1634	-9.6714
21.1726	8.0069
21.1818	28.6109
21.1910	15.1676
21.2003	24.8801
21.2095	1.2661
21.2187	12.0137
21.2279	6.5341
21.2371	0.2762
21.2464	12.7565
21.2556	9.1513
21.2648	13.3191
21.2740	20.5455
21.2833	28.8213
21.2925	35.8123
21.3017	29.7069
21.3109	-8.3463
21.3202	39.5535
21.3294	17.5289
21.3386	-3.7040
21.3478	2.3033
21.3570	-15.4820
21.3663	-1.3607
21.3755	27.3274
21.3847	28.3907
21.3939	23.7657
21.4032	28.3899
21.4124	3.3876
21.4216	5.8866
21.4308	32.1376
21.4400	13.9635
21.4493	-1.7723
21.4585	4.1182
21.4677	26.7846
21.4769	35.0159
21.4862	49.9508
21.4954	42.6887
21.5046	-11.2543
21.5138	-24.2947
21.5230	68.4869
21.5323	18.1192
21.5415	12.5732
21.5507	29.2226
21.5599	-1.2455
21.5692	19.9081
21.5784	21.0329
21.5876	27.6586
21.5968	7.4361
21.6061	9.6047
21.6153	-34.9384
21.6245	17.8388
21.6337	18.5059
21.6429	30.5570
21.6522	18.1424
21.6614	-3.0555
21.6706	15.2239
21.6798	-17.7283
21.6891	4.3423
21.6983	-8.1756
21.7075	-7.8380
21.7167	6.7958
21.7259	11.5038
21.7352	2.2004
21.7444	39.4590
21.7536	33.0915
21.7628	7.6476
21.7721	4.7474
21.7813	28.5137
21.7905	10.4730
21.7997	28.8772
21.8090	38.4996
21.8182	-5.7080
21.8274	21.7330
21.8366	9.2040
21.8458	30.9063
21.8551	16.5725
21.8643	17.3124
21.8735	18.7893
21.8827	2.5784
21.8920	48.0988
21.9012	18.6227
21.9104	9.8982
21.9196	6.3638
21.9288	15.7398
21.9381	8.9639
21.9473	2.1800
21.9565	20.9037
21.9657	20.4330
21.9750	9.1957
21.9842	-14.6394
21.9934	11.8934
22.0026	15.4254
22.0119	-19.0408
22.0211	-3.3386
22.0303	26.4213
22.0395	37.4263
22.0487	19.6783
22.0580	23.6601
22.0672	-17.3909
22.0764	39.0624
22.0856	31.1128
22.0949	14.9045
22.1041	12.4409
22.1133	1.6655
22.1225	-2.4479
22.1317	0.9755
22.1410	46.6546
22.1502	16.3360
22.1594	5.9993
22.1686	-5.2443
22.1779	5.5806
22.1871	23.6366
22.1963	18.6147
22.2055	14.4007
22.2147	-2.7130
22.2240	12.7021
22.2332	32.6311
22.2424	23.2792
22.2516	27.6998
22.2609	11.6985
22.2701	-18.2148
22.2793	-10.7552
22.2885	5.4766
22.2978	14.7713
22.3070	-6.6339
22.3162	41.0525
22.3254	10.1342
22.3346	11.5619
22.3439	37.2992
22.3531	41.8900
22.3623	15.7352
22.3715	17.2457
22.3808	-2.6103
22.3900	-3.5401
22.3992	17.9257
22.4084	33.9864
22.4176	57.4125
22.4269	57.0236
22.4361	26.2788
22.4453	54.6909
22.4545	3.8525
22.4638	15.5104
22.4730	12.8480
22.4822	24.7166
22.4914	-15.2566
22.5007	42.7772
22.5099	3.5034
22.5191	32.1524
22.5283	40.2421
22.5375	31.9146
22.5468	12.5436
22.5560	-1.8190
22.5652	-21.0974
22.5744	9.4530
22.5837	-13.2038
22.5929	2.5681
22.6021	29.3337
22.6113	33.1905
22.6205	15.9216
22.6298	38.0956
22.6390	34.6850
22.6482	27.7721
22.6574	10.9474
22.6667	-7.7882
22.6759	30.5181
22.6851	-6.8659
22.6943	44.3363
22.7035	39.8176
22.7128	37.6769
22.7220	38.9532
22.7312	21.2933
22.7404	-1.8904
22.7497	-5.9877
22.7589	36.3644
22.7681	29.0244
22.7773	4.2752
22.7866	17.6792
22.7958	19.8355
22.8050	30.1396
22.8142	34.9630
22.8234	23.9559
22.8327	-12.0732
22.8419	-23.1021
22.8511	18.0807
22.8603	35.6234
22.8696	2.4593
22.8788	26.7001
22.8880	29.8361
22.8972	11.5903
22.9064	30.1299
22.9157	23.2982
22.9249	46.3007
22.9341	23.4392
22.9433	19.9587
22.9526	31.1569
22.9618	14.3589
22.9710	30.1654
22.9802	23.8567
22.9895	17.1602
22.9987	-15.7732
23.0079	43.7799
23.0171	16.5165
23.0263	5.7851
23.0356	6.5832
23.0448	-0.5710
23.0540	14.9731
23.0632	-22.9735
23.0725	-12.0655
23.0817	11.0564
23.0909	15.3563
23.1001	19.1232
23.1093	15.5897
23.1186	51.7651
23.1278	-3.9357
23.1370	20.7504
23.1462	10.5345
23.1555	48.3093
23.1647	25.1602
23.1739	46.5664
23.1831	16.9056
23.1924	15.8458
23.2016	14.0100
23.2108	12.7459
23.2200	21.3618
23.2292	-5.9841
23.2385	4.0887
23.2477	9.5786
23.2569	-8.1332
23.2661	14.5853
23.2754	0.4865
23.2846	-17.0703
23.2938	0.4576
23.3030	15.8924
23.3122	-15.8334
23.3215	17.4662
23.3307	13.8826
23.3399	10.6039
23.3491	10.3270
23.3584	3.1577
23.3676	-8.1725
23.3768	58.1286
23.3860	34.3436
23.3952	28.8120
23.4045	-3.1166
23.4137	28.2117
23.4229	21.0925
23.4321	32.8160
23.4414	5.5801
23.4506	-1.3910
23.4598	17.3198
23.4690	6.6821
23.4783	21.3387
23.4875	18.2076
23.4967	17.9059
23.5059	21.3789
23.5151	-7.6796
23.5244	1.5212
23.5336	-0.7390
23.5428	43.7161
23.5520	30.9561
23.5613	-3.5171
23.5705	27.0522
23.5797	-20.8140
23.5889	14.5833
23.5981	5.8981
23.6074	37.3141
23.6166	22.6886
23.6258	20.7447
23.6350	10.7395
23.6443	18.1650
23.6535	-11.7294
23.6627	20.9038
23.6719	37.2965
23.6812	-6.5875
23.6904	8.8900
23.6996	24.7762
23.7088	3.3825
23.7180	40.5822
23.7273	35.4268
23.7365	-1.4833
23.7457	-19.1576
23.7549	6.9214
23.7642	26.3614
23.7734	-12.5667
23.7826	28.0121
23.7918	2.2759
23.8010	-11.0148
23.8103	8.8178
23.8195	-5.8816
23.8287	36.7523
23.8379	8.0034
23.8472	17.3623
23.8564	43.4690
23.8656	-21.4456
23.8748	16.4406
23.8840	39.8167
23.8933	1.2788
23.9025	0.9516
23.9117	33.6802
23.9209	33.9282
23.9302	14.4733
23.9394	18.2292
23.9486	10.1917
23.9578	-1.0128
23.9671	20.0801
23.9763	0.9248
23.9855	8.6529
23.9947	5.9364
24.0039	0.5203
24.0132	8.8402
24.0224	32.8192
24.0316	22.4056
24.0408	7.7168
24.0501	24.3969
24.0593	1.5169
24.0685	3.1763
24.0777	9.0274
24.0869	18.5638
24.0962	17.6690
24.1054	22.4029
24.1146	23.8787
24.1238	8.8769
24.1331	10.2366
24.1423	-5.3530
24.1515	33.2157
24.1607	2.9891
24.1700	4.2527
24.1792	32.4596
24.1884	3.7863
24.1976	-10.4126
24.2068	35.7871
24.2161	23.1947
24.2253	11.3676
24.2345	12.7163
24.2437	-1.9881
24.2530	20.8123
24.2622	-24.9621
24.2714	48.0840
24.2806	-13.0591
24.2898	30.1618
24.2991	13.0144
24.3083	10.3497
24.3175	1.1111
24.3267	22.3768
24.3360	39.8789
24.3452	59.7350
24.3544	32.1692
24.3636	0.0362
24.3729	-5.9912
24.3821	29.2421
24.3913	20.5090
24.4005	50.8975
24.4097	10.6059
24.4190	-8.4433
24.4282	13.1906
24.4374	-2.4993
24.4466	2.8392
24.4559	19.5238
24.4651	39.5616
24.4743	36.9911
24.4835	2.9826
24.4927	-14.5792
24.5020	17.1702
24.5112	40.7032
24.5204	44.6860
24.5296	4.9956
24.5389	1.2037
24.5481	-24.0774
24.5573	26.2093
24.5665	43.4569
24.5757	18.1022
24.5850	13.9702
24.5942	18.2750
24.6034	28.6516
24.6126	-7.7475
24.6219	-16.7070
24.6311	43.5615
24.6403	9.8801
24.6495	12.8783
24.6588	-6.0408
24.6680	5.8894
24.6772	15.4669
24.6864	10.4875
24.6956	23.4428
24.7049	12.7607
24.7141	6.3959
24.7233	26.3623
24.7325	14.4168
24.7418	18.9501
24.7510	-27.9566
24.7602	28.1559
24.7694	49.1048
24.7786	4.1067
24.7879	24.8424
24.7971	19.0195
24.8063	38.9244
24.8155	21.6568
24.8248	18.4900
24.8340	42.8768
24.8432	25.5256
24.8524	12.6104
24.8617	47.8627
24.8709	50.1452
24.8801	42.6950
24.8893	44.4696
24.8985	25.4836
24.9078	19.8698
24.9170	1.8737
24.9262	32.8223
24.9354	19.3050
24.9447	40.4908
24.9539	20.4031
24.9631	17.3173
24.9723	38.7612
24.9815	72.1849
24.9908	144.5479
25.0000	252.3069
25.0092	274.3442
25.0184	299.0334
25.0277	297.0818
25.0369	200.9831
25.0461	92.4893
25.0553	57.3436
25.0645	52.7241
25.0738	43.2039
25.0830	48.5269
25.0922	35.7923
25.1014	14.0924
25.1107	3.0879
25.1199	24.3347
25.1291	18.6936
25.1383	81.4526
25.1476	55.5934
25.1568	37.5515
25.1660	27.3041
25.1752	20.4712
25.1844	20.4623
25.1937	-2.7305
25.2029	-11.8153
25.2121	-9.9648
25.2213	42.9691
25.2306	-3.4860
25.2398	37.3097
25.2490	0.7850
25.2582	38.0758
25.2674	73.2923
25.2767	39.0698
25.2859	11.3677
25.2951	11.7728
25.3043	14.6410
25.3136	23.6534
25.3228	7.3039
25.3320	25.9029
25.3412	33.2676
25.3505	19.3024
25.3597	38.6632
25.3689	57.7273
25.3781	13.3863
25.3873	15.5693
25.3966	-21.2529
25.4058	42.6553
25.4150	27.1311
25.4242	2.7525
25.4335	21.1220
25.4427	43.7689
25.4519	36.2471
25.4611	15.2770
25.4703	37.1720
25.4796	8.1472
25.4888	17.3596
25.4980	40.6314
25.5072	39.8335
25.5165	8.0780
25.5257	-12.9253
25.5349	31.1845
25.5441	62.3170
25.5534	56.2636
25.5626	22.6418
25.5718	7.4372
25.5810	25.4532
25.5902	41.1034
25.5995	23.1940
25.6087	50.9647
25.6179	17.8304
25.6271	-6.8530
25.6364	19.3032
25.6456	27.5883
25.6548	9.8919
25.6640	15.0842
25.6732	46.5402
25.6825	30.9444
25.6917	-14.2909
25.7009	22.9100
25.7101	0.0920
25.7194	34.0654
25.7286	-0.0441
25.7378	14.8186
25.7470	-2.1550
25.7562	-7.5397
25.7655	28.2647
25.7747	42.1159
25.7839	21.6323
25.7931	28.9188
25.8024	21.7847
25.8116	11.0694
25.8208	2.6721
25.8300	20.5014
25.8393	7.1711
25.8485	37.5715
25.8577	37.6946
25.8669	54.5688
25.8761	-6.1218
25.8854	45.3491
25.8946	49.8735
25.9038	43.4890
25.9130	54.0829
25.9223	12.9584
25.9315	17.8955
25.9407	16.6118
25.9499	37.6949
25.9591	-0.3625
25.9684	9.4780
25.9776	10.8083
25.9868	50.8336
25.9960	8.7211
26.0053	26.7687
26.0145	-19.1145
26.0237	19.5247
26.0329	14.5442
26.0422	4.7571
26.0514	10.0443
26.0606	26.6118
26.0698	5.6739
26.0790	14.5051
26.0883	29.8048
26.0975	22.4148
26.1067	29.3187
26.1159	28.8028
26.1252	7.5497
26.1344	-12.5898
26.1436	82.9246
26.1528	5.7548
26.1620	-16.8341
26.1713	72.5731
26.1805	33.5248
26.1897	7.9301
26.1989	14.8233
26.2082	42.9827
26.2174	26.8550
26.2266	42.8381
26.2358	9.3091
26.2450	15.9482
26.2543	43.8910
26.2635	8.3770
26.2727	24.9969
26.2819	20.0345
26.2912	16.2204
26.3004	12.2981
26.3096	21.8157
26.3188	35.4034
26.3281	25.7735
26.3373	-4.9390
26.3465	-5.0890
26.3557	23.2377
26.3649	50.3705
26.3742	22.4063
26.3834	4.4347
26.3926	28.5153
26.4018	28.4557
26.4111	13.0480
26.4203	17.9867
26.4295	4.5323
26.4387	38.1492
26.4479	36.3112
26.4572	19.1857
26.4664	60.1548
26.4756	14.5076
26.4848	-1.3591
26.4941	0.7907
26.5033	3.7207
26.5125	18.9869
26.5217	32.1144
26.5310	4.4126
26.5402	5.3412
26.5494	47.2486
26.5586	35.7602
26.5678	29.5758
26.5771	20.5288
26.5863	14.3054
26.5955	49.7668
26.6047	28.0967
26.6140	27.5473
26.6232	6.4697
26.6324	9.0694
26.6416	62.0126
26.6508	37.0796
26.6601	46.8713
26.6693	4.5606
26.6785	20.2675
26.6877	63.5390
26.6970	58.2997
26.7062	38.2485
26.7154	42.5049
26.7246	15.5105
26.7339	33.9317
26.7431	31.0659
26.7523	19.1387
26.7615	-9.8077
26.7707	7.5460
26.7800	13.0813
26.7892	4.0022
26.7984	-17.5446
26.8076	-3.1025
26.8169	6.7592
26.8261	10.7058
26.8353	35.2911
26.8445	25.9286
26.8537	8.4423
26.8630	-18.8601
26.8722	8.0655
26.8814	10.1975
26.8906	29.1986
26.8999	16.4060
26.9091	13.3138
26.9183	20.1971
26.9275	36.6962
26.9367	42.6314
26.9460	-17.4488
26.9552	20.5785
26.9644	57.4737
26.9736	40.3312
26.9829	50.5051
26.9921	19.6027
27.0013	2.3901
27.0105	28.1307
27.0198	35.9300
27.0290	26.9845
27.0382	26.9833
27.0474	22.4519
27.0566	-10.6606
27.0659	25.4191
27.0751	49.7088
27.0843	14.0773
27.0935	2.7526
27.1028	19.6497
27.1120	21.3077
27.1212	54.6314
27.1304	17.1423
27.1396	4.9625
27.1489	35.1221
27.1581	23.6505
27.1673	43.3243
27.1765	17.3707
27.1858	34.8843
27.1950	50.6960
27.2042	28.8434
27.2134	13.7919
27.2227	23.9951
27.2319	5.8304
27.2411	12.0926
27.2503	14.7647
27.2595	63.5052
27.2688	28.5168
27.2780	51.6774
27.2872	13.9197
27.2964	0.8678
27.3057	46.4924
27.3149	13.3649
27.3241	60.8656
27.3333	18.3583
27.3425	25.4709
27.3518	40.2631
27.3610	1.1352
27.3702	22.4917
27.3794	20.4777
27.3887	24.7108
27.3979	43.8006
27.4071	15.0699
27.4163	31.2443
27.4255	14.9203
27.4348	0.8157
27.4440	7.8859
27.4532	21.3242
27.4624	32.6955
27.4717	10.2295
27.4809	-9.4911
27.4901	1.3626
27.4993	12.2920
27.5086	26.4666
27.5178	-12.9106
27.5270	24.6709
27.5362	55.8424
27.5454	7.2299
27.5547	-7.0190
27.5639	47.7192
27.5731	28.2557
27.5823	-2.5671
27.5916	36.0471
27.6008	57.3316
27.6100	35.3726
27.6192	-5.2819
27.6284	46.6037
27.6377	20.5133
27.6469	18.7258
27.6561	19.9998
27.6653	43.4932
27.6746	19.9928
27.6838	32.8685
27.6930	4.5852
27.7022	22.7023
27.7115	43.2149
27.7207	23.4477
27.7299	34.9214
27.7391	37.4042
27.7483	40.1339
27.7576	-1.6186
27.7668	20.8003
27.7760	32.6945
27.7852	27.4589
27.7945	2.4585
27.8037	41.6817
27.8129	49.3892
27.8221	46.4348
27.8313	22.2209
27.8406	67.9775
27.8498	8.7964
27.8590	24.1397
27.8682	51.2116
27.8775	-26.4123
27.8867	32.5450
27.8959	23.2528
27.9051	17.4876
27.9144	-2.8634
27.9236	-8.6734
27.9328	38.3514
27.9420	64.3594
27.9512	37.9272
27.9605	16.4872
27.9697	18.0019
27.9789	28.6637
27.9881	-11.1557
27.9974	12.3075
28.0066	-1.8210
28.0158	-9.2860
28.0250	30.5823
28.0342	26.8252
28.0435	15.5990
28.0527	42.7138
28.0619	9.8523
28.0711	34.8410
28.0804	40.0197
28.0896	43.7807
28.0988	11.4150
28.1080	27.2094
28.1172	3.0608
28.1265	11.4249
28.1357	32.7643
28.1449	14.6989
28.1541	41.2419
28.1634	49.5706
28.1726	13.7600
28.1818	63.9017
28.1910	28.7347
28.2003	0.1425
28.2095	-5.1471
28.2187	-2.9650
28.2279	40.1735
28.2371	30.2544
28.2464	17.8793
28.2556	8.4245
28.2648	3.0683
28.2740	24.5638
28.2833	32.3498
28.2925	29.4546
28.3017	39.1748
28.3109	27.7821
28.3201	20.2273
28.3294	18.3992
28.3386	13.4381
28.3478	28.2716
28.3570	12.9722
28.3663	24.0179
28.3755	15.8231
28.3847	59.0190
28.3939	58.7481
28.4032	30.9586
28.4124	21.9935
28.4216	16.0075
28.4308	12.5335
28.4400	38.1916
28.4493	9.9747
28.4585	24.4327
28.4677	43.5215
28.4769	0.2067
28.4862	12.7857
28.4954	41.4374
28.5046	50.3945
28.5138	31.6333
28.5230	33.5214
28.5323	55.9910
28.5415	41.5485
28.5507	11.6273
28.5599	25.2381
28.5692	8.1910
28.5784	-2.2016
28.5876	23.4674
28.5968	5.4958
28.6060	56.2787
28.6153	1.1409
28.6245	31.9036
28.6337	3.8814
28.6429	43.5550
28.6522	42.0211
28.6614	64.8263
28.6706	13.2496
28.6798	-15.0210
28.6891	33.0476
28.6983	48.1497
28.7075	11.0905
28.7167	-25.7607
28.7259	27.2212
28.7352	25.1868
28.7444	14.6860
28.7536	43.3346
28.7628	57.1959
28.7721	36.8918
28.7813	16.0600
28.7905	26.8847
28.7997	11.8886
28.8089	49.6959
28.8182	0.1718
28.8274	19.0980
28.8366	-12.8256
28.8458	46.3682
28.8551	32.8699
28.8643	5.1877
28.8735	7.1013
28.8827	36.6502
28.8920	42.0278
28.9012	61.5015
28.9104	57.8013
28.9196	28.9997
28.9288	22.8775
28.9381	5.0834
28.9473	-2.4127
28.9565	11.9162
28.9657	-0.9099
28.9750	37.8439
28.9842	-12.0421
28.9934	33.3713
29.0026	60.6294
29.0118	31.5088
29.0211	21.8594
29.0303	13.6681
29.0395	21.1038
29.0487	38.2750
29.0580	21.4715
29.0672	24.5790
29.0764	34.5159
29.0856	8.1635
29.0949	4.8477
29.1041	14.2713
29.1133	36.9248
29.1225	54.7447
29.1317	29.0588
29.1410	46.9924
29.1502	31.4496
29.1594	49.7474
29.1686	21.5240
29.1779	38.1420
29.1871	22.3397
29.1963	33.5402
29.2055	57.0191
29.2147	58.9799
29.2240	18.7895
29.2332	22.2352
29.2424	24.5204
29.2516	41.3190
29.2609	28.6182
29.2701	33.0641
29.2793	56.6705
29.2885	13.8710
29.2977	36.8646
29.3070	22.3740
29.3162	39.0708
29.3254	12.9434
29.3346	48.0975
29.3439	50.4881
29.3531	11.7409
29.3623	5.6123
29.3715	31.7945
29.3808	-1.2525
29.3900	25.6427
29.3992	6.3682
29.4084	27.6780
29.4176	18.2999
29.4269	29.4498
29.4361	18.8488
29.4453	25.0441
29.4545	-5.5947
29.4638	29.8389
29.4730	25.4830
29.4822	28.7337
29.4914	29.6858
29.5006	30.7263
29.5099	22.6837
29.5191	-8.3501
29.5283	35.1198
29.5375	31.4055
29.5468	48.6394
29.5560	44.5986
29.5652	83.3768
29.5744	26.7366
29.5837	34.7647
29.5929	19.4913
29.6021	59.5392
29.6113	16.9554
29.6205	1.2182
29.6298	43.8231
29.6390	58.2160
29.6482	46.4074
29.6574	60.8355
29.6667	48.6076
29.6759	42.2584
29.6851	15.8238
29.6943	29.2800
29.7035	82.5376
29.7128	21.5488
29.7220	-0.3842
29.7312	28.0720
29.7404	42.5775
29.7497	7.2647
29.7589	47.4601
29.7681	16.3729
29.7773	29.1108
29.7865	35.0618
29.7958	31.5978
29.8050	20.9141
29.8142	25.5715
29.8234	8.0415
29.8327	-22.3292
29.8419	-7.2621
29.8511	17.4507
29.8603	57.3860
29.8696	55.8348
29.8788	76.5993
29.8880	-3.1045
29.8972	24.9238
29.9064	49.3688
29.9157	10.4848
29.9249	14.2307
29.9341	40.3725
29.9433	-11.6559
29.9526	35.2254
29.9618	39.8745
29.9710	48.8865
29.9802	-3.4566
29.9894	28.7776
29.9987	40.4196
30.0079	48.9454
30.0171	66.8570
30.0263	13.7069
30.0356	31.3838
30.0448	8.6305
30.0540	1.3385
30.0632	23.3817
30.0725	57.0228
30.0817	-2.7665
30.0909	7.7861
30.1001	25.5640
30.1093	56.2480
30.1186	43.0608
30.1278	19.0636
30.1370	39.5547
30.1462	26.8168
30.1555	19.4120
30.1647	82.5732
30.1739	41.7165
30.1831	17.3977
30.1923	3.7753
30.2016	12.3899
30.2108	27.2319
30.2200	-27.1131
30.2292	34.6947
30.2385	36.4748
30.2477	21.9647
30.2569	10.1564
30.2661	33.7982
30.2754	24.3205
30.2846	20.0634
30.2938	34.0152
30.3030	-5.3357
30.3122	38.2247
30.3215	26.9866
30.3307	26.2449
30.3399	34.4149
30.3491	2.6531
30.3584	17.5378
30.3676	54.6294
30.3768	49.6793
30.3860	33.3009
30.3952	1.6542
30.4045	45.5690
30.4137	15.7735
30.4229	43.7369
30.4321	12.3045
30.4414	44.4507
30.4506	20.2271
30.4598	-13.6024
30.4690	0.2404
30.4782	48.2559
30.4875	44.4646
30.4967	13.2700
30.5059	32.9031
30.5151	52.0509
30.5244	19.5124
30.5336	65.6202
30.5428	31.0510
30.5520	-3.1698
30.5613	5.8163
30.5705	16.5195
30.5797	15.9847
30.5889	10.7707
30.5981	36.8667
30.6074	21.2464
30.6166	28.7997
30.6258	-4.2369
30.6350	22.0325
30.6443	27.5324
30.6535	40.5371
30.6627	17.5621
30.6719	-14.9603
30.6811	34.8316
30.6904	2.3486
30.6996	-5.3970
30.7088	35.7262
30.7180	4.6351
30.7273	24.9965
30.7365	52.9772
30.7457	11.7701
30.7549	44.8027
30.7642	-3.0670
30.7734	10.1413
30.7826	49.7139
30.7918	-22.2773
30.8010	30.4130
30.8103	20.1278
30.8195	38.1112
30.8287	14.2121
30.8379	6.8701
30.8472	-10.5574
30.8564	41.6206
30.8656	40.9014
30.8748	-4.4213
30.8840	46.0396
30.8933	-4.0992
30.9025	13.2910
30.9117	14.6139
30.9209	5.0971
30.9302	-5.1931
30.9394	2.8785
30.9486	1.5380
30.9578	38.4991
30.9670	54.7373
30.9763	15.0543
30.9855	43.0746
30.9947	6.0406
31.0039	32.0222
31.0132	16.8718
31.0224	-14.5975
31.0316	36.3193
31.0408	53.8345
31.0501	-12.4414
31.0593	24.3635
31.0685	20.2590
31.0777	29.9218
31.0869	15.0550
31.0962	26.1276
31.1054	-30.4317
31.1146	32.3092
31.1238	12.4976
31.1331	58.3440
31.1423	4.3200
31.1515	-14.2097
31.1607	18.5926
31.1699	24.4934
31.1792	53.8291
31.1884	6.2222
31.1976	39.3518
31.2068	33.9956
31.2161	9.9078
31.2253	27.7475
31.2345	4.2109
31.2437	51.9954
31.2530	24.9429
31.2622	16.2072
31.2714	18.5670
31.2806	8.7080
31.2898	10.0573
31.2991	20.3821
31.3083	-4.8289
31.3175	49.7930
31.3267	14.9592
31.3360	10.8077
31.3452	49.7694
31.3544	61.9763
31.3636	25.6088
31.3728	7.0502
31.3821	12.8187
31.3913	-16.3981
31.4005	26.3013
31.4097	7.2025
31.4190	5.3070
31.4282	14.8622
31.4374	28.5046
31.4466	14.2388
31.4559	0.7733
31.4651	26.7446
31.4743	19.3860
31.4835	51.9358
31.4927	26.0080
31.5020	41.4962
31.5112	1.8701
31.5204	19.0259
31.5296	29.2388
31.5389	13.6505
31.5481	-11.6277
31.5573	9.0926
31.5665	26.2058
31.5757	10.6478
31.5850	59.1297
31.5942	12.2838
31.6034	18.7948
31.6126	19.8838
31.6219	17.9351
31.6311	2.4503
31.6403	14.3761
31.6495	36.1217
31.6587	31.5108
31.6680	-7.7341
31.6772	-2.3124
31.6864	2.1054
31.6956	-11.5908
31.7049	-7.4100
31.7141	19.9202
31.7233	19.1093
31.7325	5.0274
31.7418	46.4938
31.7510	30.5433
31.7602	4.6165
31.7694	37.3466
31.7786	-4.6737
31.7879	-1.6972
31.7971	28.1362
31.8063	10.8701
31.8155	24.4274
31.8248	-6.7914
31.8340	7.2798
31.8432	31.9502
31.8524	2.2551
31.8616	39.3967
31.8709	4.7904
31.8801	13.4517
31.8893	43.2896
31.8985	23.2367
31.9078	37.6465
31.9170	20.1601
31.9262	-10.1807
31.9354	38.3006
31.9447	2.6689
31.9539	10.7035
31.9631	25.6623
31.9723	41.0610
31.9815	21.4885
31.9908	13.0846
32.0000	-3.9047
32.0092	14.7744
32.0184	2.9005
32.0277	-10.3842
32.0369	21.6940
32.0461	21.5196
32.0553	22.0305
32.0645	13.0067
32.0738	46.6860
32.0830	33.8397
32.0922	-15.9459
32.1014	-12.8059
32.1107	-3.8815
32.1199	26.0107
32.1291	-3.4378
32.1383	47.0048
32.1475	34.1699
32.1568	17.5203
32.1660	28.9749
32.1752	-22.6000
32.1844	2.5673
32.1937	25.6624
32.2029	18.1965
32.2121	14.5770
32.2213	24.7732
32.2306	57.7664
32.2398	25.5500
32.2490	-9.5063
32.2582	9.1637
32.2674	2.1634
32.2767	7.5246
32.2859	42.0050
32.2951	44.7422
32.3043	13.1012
32.3136	2.8186
32.3228	29.5736
32.3320	25.1293
32.3412	0.9712
32.3504	6.9713
32.3597	29.5537
32.3689	26.1071
32.3781	-0.5376
32.3873	4.2672
32.3966	21.4560
32.4058	-7.4269
32.4150	5.3321
32.4242	-2.0125
32.4335	16.7172
32.4427	18.0976
32.4519	19.3283
32.4611	17.3886
32.4703	26.2879
32.4796	15.0146
32.4888	-11.2950
32.4980	7.3700
32.5072	10.6494
32.5165	24.6541
32.5257	4.7139
32.5349	12.9745
32.5441	24.9312
32.5533	-12.6676
32.5626	-19.4258
32.5718	33.4037
32.5810	-1.1204
32.5902	8.4501
32.5995	33.6665
32.6087	51.7688
32.6179	42.9438
32.6271	0.7351
32.6363	64.6270
32.6456	27.9625
32.6548	37.5595
32.6640	43.9021
32.6732	38.6110
32.6825	14.0085
32.6917	27.9015
32.7009	35.3473
32.7101	1.2841
32.7194	20.6697
32.7286	47.5886
32.7378	30.3871
32.7470	31.9163
32.7562	41.8177
32.7655	45.8499
32.7747	26.3268
32.7839	65.7922
32.7931	-13.1351
32.8024	31.4362
32.8116	-14.3554
32.8208	27.1617
32.8300	44.1603
32.8392	22.4768
32.8485	16.3754
32.8577	1.9545
32.8669	8.8076
32.8761	-6.6812
32.8854	10.2589
32.8946	15.1587
32.9038	14.3517
32.9130	-0.7790
32.9223	-13.7850
32.9315	21.1342
32.9407	12.1298
32.9499	-10.8467
32.9591	5.6384
32.9684	8.4135
32.9776	-5.9987
32.9868	-6.4592
32.9960	-0.7988
33.0053	-5.6033
33.0145	33.5707
33.0237	5.7214
33.0329	24.6459
33.0421	10.6855
33.0514	39.9466
33.0606	27.5139
33.0698	66.9099
33.0790	8.7618
33.0883	33.2743
33.0975	67.7988
33.1067	28.7208
33.1159	28.8942
33.1252	16.6352
33.1344	10.3752
33.1436	27.1711
33.1528	32.0976
33.1620	32.4981
33.1713	26.5746
33.1805	52.7236
33.1897	38.7595
33.1989	-2.1978
33.2082	28.8932
33.2174	4.4099
33.2266	18.1085
33.2358	18.3668
33.2450	28.6451
33.2543	23.5539
33.2635	10.5344
33.2727	6.0174
33.2819	14.6634
33.2912	11.8241
33.3004	9.3974
33.3096	20.6115
33.3188	-12.7094
33.3280	-6.6884
33.3373	4.5698
33.3465	12.4658
33.3557	3.9345
33.3649	-6.0168
33.3742	22.8181
33.3834	12.1149
33.3926	-1.7294
33.4018	27.3231
33.4111	21.5935
33.4203	-4.6040
33.4295	28.6869
33.4387	52.7998
33.4479	31.9595
33.4572	4.2207
33.4664	14.0267
33.4756	14.2944
33.4848	16.1202
33.4941	24.9681
33.5033	1.3780
33.5125	36.1747
33.5217	15.0499
33.5309	37.8261
33.5402	21.6479
33.5494	36.9908
33.5586	55.1483
33.5678	33.8386
33.5771	49.7867
33.5863	18.7377
33.5955	13.8890
33.6047	32.2301
33.6140	32.6326
33.6232	9.0715
33.6324	45.4027
33.6416	27.9343
33.6508	-1.5391
33.6601	22.3543
33.6693	6.6704
33.6785	39.8228
33.6877	42.5130
33.6970	33.3847
33.7062	10.2503
33.7154	9.2556
33.7246	5.3054
33.7338	-6.9337
33.7431	-8.2618
33.7523	47.4688
33.7615	2.5071
33.7707	12.1781
33.7800	14.8371
33.7892	17.5496
33.7984	39.0200
33.8076	8.0236
33.8168	16.7397
33.8261	39.1902
33.8353	0.4688
33.8445	-4.9116
33.8537	40.5505
33.8630	50.2279
33.8722	6.6510
33.8814	27.4051
33.8906	-3.1533
33.8999	4.0813
33.9091	33.4042
33.9183	62.5354
33.9275	15.5100
33.9367	28.5144
33.9460	32.6191
33.9552	38.7077
33.9644	10.9632
33.9736	3.3297
33.9829	6.3217
33.9921	59.1581
34.0013	18.3983
34.0105	28.1315
34.0197	9.6185
34.0290	-6.5631
34.0382	28.7861
34.0474	48.9350
34.0566	32.5086
34.0659	-7.7205
34.0751	15.7167
34.0843	19.0333
34.0935	27.5214
34.1028	51.0660
34.1120	51.6634
34.1212	20.2825
34.1304	-5.1170
34.1396	27.3363
34.1489	7.3357
34.1581	-0.5786
34.1673	35.4190
34.1765	25.9490
34.1858	35.7300
34.1950	1.6816
34.2042	-3.2830
34.2134	14.7251
34.2226	16.2226
34.2319	28.6026
34.2411	28.8298
34.2503	30.5373
34.2595	33.6486
34.2688	15.7066
34.2780	26.6130
34.2872	-14.9033
34.2964	21.2849
34.3057	25.3753
34.3149	3.2469
34.3241	-23.4882
34.3333	6.3056
34.3425	23.3282
34.3518	-3.4120
34.3610	22.5785
34.3702	19.2481
34.3794	24.6593
34.3887	-4.7407
34.3979	3.6495
34.4071	34.2546
34.4163	32.6945
34.4255	51.4295
34.4348	13.7864
34.4440	-2.3827
34.4532	16.8203
34.4624	26.3007
34.4717	4.0836
34.4809	25.4494
34.4901	36.7597
34.4993	38.8656
34.5085	67.3831
34.5178	12.4620
34.5270	2.0482
34.5362	37.0736
34.5454	16.5341
34.5547	17.8978
34.5639	-8.5554
34.5731	29.9129
34.5823	13.2779
34.5916	31.8963
34.6008	46.3244
34.6100	17.2940
34.6192	-10.7185
34.6284	1.9014
34.6377	27.6651
34.6469	18.5349
34.6561	22.9439
34.6653	16.9344
34.6746	16.9769
34.6838	37.3004
34.6930	2.8790
34.7022	22.8654
34.7114	10.5329
34.7207	-17.9151
34.7299	8.2009
34.7391	18.4507
34.7483	18.4456
34.7576	11.7507
34.7668	1.3927
34.7760	26.5196
34.7852	8.1574
34.7945	13.8846
34.8037	25.9067
34.8129	20.1458
34.8221	32.8825
34.8313	22.2645
34.8406	0.8770
34.8498	-0.8291
34.8590	37.3281
34.8682	-2.5945
34.8775	34.3023
34.8867	39.9273
34.8959	14.8014
34.9051	17.2785
34.9143	4.6002
34.9236	0.1722
34.9328	37.6169
34.9420	47.4747
34.9512	32.6567
34.9605	3.3127
34.9697	39.1801
34.9789	37.6381
34.9881	51.8360
34.9973	14.5602
35.0066	14.5346
35.0158	-2.4298
35.0250	21.7606
35.0342	-11.0793
35.0435	55.8210
35.0527	38.6210
35.0619	56.4862
35.0711	45.5665
35.0804	-3.5942
35.0896	44.5153
35.0988	-12.5211
35.1080	8.7745
35.1172	17.4241
35.1265	-9.7579
35.1357	33.3538
35.1449	3.4952
35.1541	-3.0616
35.1634	-7.4978
35.1726	-1.4389
35.1818	1.8485
35.1910	18.2761
35.2002	-3.1114
35.2095	16.9770
35.2187	37.2381
35.2279	25.0195
35.2371	33.8843
35.2464	-12.8940
35.2556	5.1725
35.2648	-6.6071
35.2740	5.7099
35.2833	-7.2332
35.2925	16.1860
35.3017	27.3079
35.3109	17.9172
35.3201	41.7303
35.3294	16.8473
35.3386	1.6638
35.3478	23.2549
35.3570	1.4128
35.3663	29.3184
35.3755	44.6945
35.3847	24.2758
35.3939	24.8237
35.4031	27.4209
35.4124	29.5918
35.4216	33.3722
35.4308	6.7044
35.4400	20.2272
35.4493	-19.7784
35.4585	7.6524
35.4677	43.3396
35.4769	44.3780
35.4862	36.2775
35.4954	29.7476
35.5046	25.8164
35.5138	-25.9529
35.5230	-11.3263
35.5323	-11.5870
35.5415	25.4944
35.5507	13.8542
35.5599	16.7085
35.5692	-2.7098
35.5784	26.4380
35.5876	2.0819
35.5968	-1.7802
35.6060	-6.5523
35.6153	3.4600
35.6245	8.4707
35.6337	3.6925
35.6429	3.1162
35.6522	36.5670
35.6614	1.4151
35.6706	21.0644
35.6798	-2.3692
35.6890	-1.6523
35.6983	-2.5451
35.7075	17.5759
35.7167	29.1703
35.7259	-1.4894
35.7352	43.9558
35.7444	29.4160
35.7536	44.2484
35.7628	10.7275
35.7721	18.5476
35.7813	-17.8567
35.7905	5.9051
35.7997	13.4552
35.8089	11.6643
35.8182	17.1694
35.8274	52.7790
35.8366	1.1342
35.8458	23.5830
35.8551	10.5138
35.8643	33.4376
35.8735	2.9442
35.8827	2.8040
35.8919	-3.7495
35.9012	1.2030
35.9104	36.4751
35.9196	42.0686
35.9288	13.5433
35.9381	-6.8071
35.9473	15.1153
35.9565	-9.5709
35.9657	11.0108
35.9750	4.4631
35.9842	11.5020
35.9934	18.1411
36.0026	31.8267
36.0118	23.3197
36.0211	0.6884
36.0303	9.6001
36.0395	7.2289
36.0487	5.2568
36.0580	19.2191
36.0672	1.6928
36.0764	41.9781
36.0856	-4.3522
36.0948	-3.5541
36.1041	21.8773
36.1133	40.3795
36.1225	1.2360
36.1317	-34.6213
36.1410	43.6213
36.1502	-18.0973
36.1594	13.8650
36.1686	-4.6954
36.1778	-20.0602
36.1871	22.9144
36.1963	-0.8910
36.2055	2.7035
36.2147	24.6667
36.2240	29.6858
36.2332	18.5449
36.2424	11.0860
36.2516	9.9126
36.2609	-2.0693
36.2701	10.3493
36.2793	10.4121
36.2885	21.1555
36.2977	-2.8831
36.3070	14.7904
36.3162	17.1630
36.3254	-0.0645
36.3346	-3.6222
36.3439	-19.3607
36.3531	4.6175
36.3623	12.6201
36.3715	-0.0878
36.3807	35.2412
36.3900	-12.7886
36.3992	34.0466
36.4084	40.1087
36.4176	3.6501
36.4269	36.9325
36.4361	13.6059
36.4453	-4.4408
36.4545	15.7125
36.4638	-9.1536
36.4730	-10.3503
36.4822	0.6600
36.4914	22.2702
36.5006	9.7505
36.5099	15.0754
36.5191	26.3724
36.5283	13.2198
36.5375	10.4440
36.5468	0.9539
36.5560	12.5475
36.5652	-2.3468
36.5744	19.3950
36.5836	4.3302
36.5929	2.8798
36.6021	5.2480
36.6113	9.3579
36.6205	36.8197
36.6298	-23.3551
36.6390	-10.1728
36.6482	0.8514
36.6574	27.0586
36.6667	6.2753
36.6759	9.7858
36.6851	26.5453
36.6943	33.4134
36.7035	5.9173
36.7128	-12.4284
36.7220	2.8263
36.7312	20.4820
36.7404	30.5379
36.7497	33.6283
36.7589	-1.5135
36.7681	3.7866
36.7773	8.9554
36.7865	-0.2510
36.7958	13.4805
36.8050	5.8635
36.8142	18.6437
36.8234	-3.5934
36.8327	31.4279
36.8419	10.1950
36.8511	18.2422
36.8603	13.1985
36.8695	26.0877
36.8788	19.1433
36.8880	21.6888
36.8972	1.2393
36.9064	33.2615
36.9157	-26.3742
36.9249	-1.2833
36.9341	13.4025
36.9433	40.8933
36.9526	43.5752
36.9618	27.2859
36.9710	-2.2646
36.9802	-22.9234
36.9894	26.3988
36.9987	7.0899
37.0079	14.9112
37.0171	27.7811
37.0263	13.2868
37.0356	-4.6497
37.0448	5.4427
37.0540	-3.4939
37.0632	-8.8605
37.0724	17.1426
37.0817	16.0299
37.0909	2.5770
37.1001	16.9673
37.1093	-8.8217
37.1186	1.5557
37.1278	17.2312
37.1370	-0.2935
37.1462	17.7915
37.1555	39.5327
37.1647	29.0707
37.1739	12.4286
37.1831	8.0599
37.1923	14.3756
37.2016	42.5710
37.2108	31.7612
37.2200	9.4401
37.2292	21.4139
37.2385	13.9318
37.2477	8.2891
37.2569	23.5853
37.2661	26.5508
37.2753	35.3877
37.2846	45.4224
37.2938	39.7849
37.3030	41.3351
37.3122	60.4677
37.3215	106.2024
37.3307	184.4532
37.3399	326.1032
37.3491	365.4993
37.3583	411.7079
37.3676	301.7082
37.3768	149.5723
37.3860	73.6126
37.3952	39.9070
37.4045	44.7003
37.4137	32.9478
37.4229	37.7043
37.4321	13.2648
37.4414	14.1828
37.4506	-2.1154
37.4598	30.6608
37.4690	-8.3479
37.4782	25.1298
37.4875	26.3862
37.4967	17.2031
37.5059	12.2074
37.5151	40.8147
37.5244	6.1839
37.5336	41.1099
37.5428	22.2632
37.5520	27.9733
37.5612	42.7648
37.5705	36.2372
37.5797	24.6576
37.5889	39.4785
37.5981	-10.7128
37.6074	-19.5944
37.6166	11.4079
37.6258	14.3448
37.6350	4.4792
37.6443	10.6880
37.6535	31.1241
37.6627	28.6197
37.6719	21.1368
37.6811	28.2270
37.6904	12.7795
37.6996	46.7708
37.7088	44.0755
37.7180	-1.5275
37.7273	31.4610
37.7365	15.0875
37.7457	8.6838
37.7549	31.3123
37.7641	14.5815
37.7734	23.5035
37.7826	35.4545
37.7918	23.6980
37.8010	-3.9502
37.8103	10.4491
37.8195	8.7374
37.8287	19.8906
37.8379	41.5042
37.8472	35.9595
37.8564	13.9976
37.8656	-1.0675
37.8748	20.7020
37.8840	42.8876
37.8933	16.8623
37.9025	13.9254
37.9117	-6.0037
37.9209	7.3015
37.9302	-6.4885
37.9394	20.6605
37.9486	25.9215
37.9578	-2.0442
37.9670	25.2171
37.9763	3.7571
37.9855	36.5294
37.9947	-7.0205
38.0039	32.5605
38.0132	10.6437
38.0224	21.8728
38.0316	4.7599
38.0408	23.9904
38.0500	21.8104
38.0593	19.0241
38.0685	-24.8202
38.0777	-1.4615
38.0869	12.0856
38.0962	7.1853
38.1054	11.7146
38.1146	19.8084
38.1238	-23.4809
38.1331	15.1828
38.1423	2.1630
38.1515	40.0528
38.1607	21.7201
38.1699	32.1521
38.1792	40.3527
38.1884	3.2085
38.1976	38.0644
38.2068	20.8400
38.2161	-4.0963
38.2253	-13.6677
38.2345	20.0344
38.2437	10.7484
38.2529	23.8707
38.2622	9.6388
38.2714	-8.5447
38.2806	16.7701
38.2898	10.8437
38.2991	-6.3567
38.3083	54.2449
38.3175	22.8946
38.3267	15.6024
38.3360	28.8033
38.3452	18.4620
38.3544	7.1907
38.3636	39.7075
38.3728	13.9128
38.3821	5.1044
38.3913	-6.6446
38.4005	3.4399
38.4097	9.2911
38.4190	6.1890
38.4282	10.2331
38.4374	8.7617
38.4466	39.5071
38.4558	14.7338
38.4651	36.8122
38.4743	13.1597
38.4835	4.5262
38.4927	9.7184
38.5020	-11.1921
38.5112	31.6773
38.5204	9.9337
38.5296	34.4479
38.5388	22.4340
38.5481	-24.5972
38.5573	1.8508
38.5665	19.8912
38.5757	-42.3863
38.5850	16.2015
38.5942	20.7363
38.6034	7.7657
38.6126	-4.8456
38.6219	1.8799
38.6311	16.4775
38.6403	-8.6463
38.6495	10.0773
38.6587	10.7963
38.6680	17.4845
38.6772	7.6773
38.6864	16.7342
38.6956	32.1520
38.7049	4.3366
38.7141	13.9312
38.7233	22.9824
38.7325	20.0762
38.7417	35.2656
38.7510	-7.9387
38.7602	12.4898
38.7694	18.4992
38.7786	17.4981
38.7879	33.9767
38.7971	27.3992
38.8063	2.2316
38.8155	18.1309
38.8248	11.6116
38.8340	-4.0903
38.8432	30.5758
38.8524	31.9281
38.8616	18.8483
38.8709	12.9723
38.8801	10.5821
38.8893	31.0836
38.8985	-3.4874
38.9078	-1.6748
38.9170	16.1447
38.9262	8.2813
38.9354	16.8981
38.9446	7.2197
38.9539	7.0064
38.9631	6.4432
38.9723	12.4491
38.9815	-10.2334
38.9908	21.7572
39.0000	5.5078
39.0092	-8.6156
39.0184	3.3574
39.0277	-1.7948
39.0369	16.1932
39.0461	15.3840
39.0553	9.3115
39.0645	18.1937
39.0738	10.8000
39.0830	18.1343
39.0922	-8.8564
39.1014	4.0200
39.1107	32.8574
39.1199	23.0165
39.1291	-3.0382
39.1383	-1.5856
39.1475	10.4639
39.1568	7.0824
39.1660	7.9005
39.1752	22.3330
39.1844	25.9882
39.1937	-2.1054
39.2029	28.1417
39.2121	-0.8299
39.2213	22.9345
39.2305	23.6407
39.2398	-10.9558
39.2490	-4.2105
39.2582	21.0698
39.2674	7.2986
39.2767	17.8271
39.2859	-0.7538
39.2951	-12.3734
39.3043	6.2202
39.3136	4.5601
39.3228	-1.0504
39.3320	-0.2125
39.3412	7.1438
39.3504	-15.5659
39.3597	-2.1121
39.3689	4.1925
39.3781	23.3620
39.3873	22.2801
39.3966	28.4474
39.4058	29.6725
39.4150	22.6341
39.4242	21.8903
39.4334	20.9788
39.4427	17.2262
39.4519	10.0047
39.4611	8.7008
39.4703	-9.5480
39.4796	35.8383
39.4888	18.0022
39.4980	6.9712
39.5072	14.1460
39.5165	39.9158
39.5257	-5.7019
39.5349	8.0566
39.5441	17.5393
39.5533	24.9513
39.5626	24.1719
39.5718	22.6232
39.5810	18.8905
39.5902	32.2240
39.5995	33.4843
39.6087	34.3150
39.6179	2.6290
39.6271	4.2137
39.6363	25.5400
39.6456	28.8037
39.6548	11.6342
39.6640	24.0291
39.6732	29.5258
39.6825	17.1823
39.6917	6.2568
39.7009	32.8402
39.7101	44.9227
39.7193	24.1687
39.7286	-4.5192
39.7378	8.4129
39.7470	2.9367
39.7562	11.4817
39.7655	-26.1833
39.7747	13.4510
39.7839	14.0818
39.7931	14.4699
39.8024	-9.1000
39.8116	6.2958
39.8208	16.1887
39.8300	13.1328
39.8392	-8.9058
39.8485	-8.7439
39.8577	-5.1923
39.8669	16.3483
39.8761	13.8560
39.8854	19.0935
39.8946	-7.3812
39.9038	14.1132
39.9130	14.5120
39.9222	-0.6219
39.9315	21.4259
39.9407	4.9288
39.9499	2.2173
39.9591	-8.8096
39.9684	12.0745
39.9776	6.7025
39.9868	23.6145
39.9960	14.7873
40.0053	5.7595
40.0145	28.2785
40.0237	29.8500
40.0329	24.7402
40.0421	14.5218
40.0514	14.7328
40.0606	2.2765
40.0698	13.7554
40.0790	20.7960
40.0883	17.5102
40.0975	18.1232
40.1067	41.7263
40.1159	25.2555
40.1251	3.2641
40.1344	-4.3681
40.1436	-2.6720
40.1528	10.3715
40.1620	6.0471
40.1713	22.1904
40.1805	11.8153
40.1897	16.9622
40.1989	27.4288
40.2082	-1.5061
40.2174	12.3358
40.2266	37.5108
40.2358	14.8873
40.2450	-12.3079
40.2543	5.0803
40.2635	10.5923
40.2727	7.8635
40.2819	5.0810
40.2912	6.1166
40.3004	-3.9982
40.3096	1.6089
40.3188	21.7106
40.3280	16.2482
40.3373	15.6655
40.3465	16.1428
40.3557	36.3496
40.3649	-6.3276
40.3742	3.3150
40.3834	18.3149
40.3926	-0.4250
40.4018	12.7043
40.4110	17.6961
40.4203	0.5570
40.4295	38.2073
40.4387	29.4484
40.4479	2.5459
40.4572	18.8733
40.4664	-13.0280
40.4756	-2.6090
40.4848	8.9661
40.4941	17.2154
40.5033	10.6302
40.5125	10.6041
40.5217	9.6406
40.5309	15.9791
40.5402	16.5243
40.5494	17.3094
40.5586	19.0818
40.5678	22.3493
40.5771	3.4138
40.5863	9.1532
40.5955	13.2186
40.6047	-11.7492
40.6139	-12.2251
40.6232	13.4315
40.6324	11.6382
40.6416	-7.9765
40.6508	24.8294
40.6601	17.6244
40.6693	7.7311
40.6785	21.3866
40.6877	-5.0531
40.6970	12.0445
40.7062	-3.1472
40.7154	27.7969
40.7246	42.5156
40.7338	6.1388
40.7431	12.8062
40.7523	11.6506
40.7615	22.0301
40.7707	15.1251
40.7800	-4.3317
40.7892	10.1801
40.7984	5.8478
40.8076	-3.6861
40.8168	4.2385
40.8261	5.9413
40.8353	18.7810
40.8445	3.0687
40.8537	5.8054
40.8630	4.9104
40.8722	20.7777
40.8814	17.3450
40.8906	34.6592
40.8998	11.2312
40.9091	-1.0839
40.9183	7.6496
40.9275	-2.0872
40.9367	-19.2946
40.9460	3.0959
40.9552	13.4326
40.9644	11.3951
40.9736	14.8114
40.9829	-10.0968
40.9921	17.0002
41.0013	13.9628
41.0105	5.0544
41.0197	5.4465
41.0290	-0.7824
41.0382	-5.0969
41.0474	21.1064
41.0566	26.3227
41.0659	5.7161
41.0751	-0.1735
41.0843	14.8269
41.0935	2.6100
41.1027	19.3113
41.1120	23.9165
41.1212	-1.6739
41.1304	-21.5306
41.1396	12.0100
41.1489	-23.4075
41.1581	-7.3606
41.1673	-12.0853
41.1765	12.9806
41.1858	19.3461
41.1950	42.6599
41.2042	7.7251
41.2134	-7.8545
41.2226	-2.3419
41.2319	4.1532
41.2411	8.2306
41.2503	11.2361
41.2595	-8.8319
41.2688	2.2420
41.2780	-6.4388
41.2872	8.2201
41.2964	21.4619
41.3056	3.5156
41.3149	-2.6068
41.3241	-1.3417
41.3333	25.7210
41.3425	15.9692
41.3518	3.6863
41.3610	-1.0498
41.3702	-6.4723
41.3794	7.3232
41.3887	23.7381
41.3979	-1.4434
41.4071	17.8076
41.4163	39.4695
41.4255	10.4564
41.4348	11.4701
41.4440	9.0578
41.4532	-12.4361
41.4624	-4.4805
41.4717	-1.2294
41.4809	5.8477
41.4901	-17.2465
41.4993	6.3866
41.5085	-6.2617
41.5178	-3.6978
41.5270	4.5006
41.5362	10.7656
41.5454	-2.8306
41.5547	8.3693
41.5639	7.1533
41.5731	11.1855
41.5823	3.8304
41.5915	-15.0894
41.6008	-2.8469
41.6100	-17.2428
41.6192	15.4723
41.6284	29.0023
41.6377	-0.1896
41.6469	14.1404
41.6561	16.3408
41.6653	-1.2569
41.6746	10.4547
41.6838	12.2326
41.6930	18.0887
41.7022	8.5213
41.7114	25.9816
41.7207	15.5746
41.7299	22.8733
41.7391	21.2178
41.7483	16.6274
41.7576	14.9346
41.7668	-3.5156
41.7760	16.9003
41.7852	28.2056
41.7944	10.5958
41.8037	-4.7094
41.8129	1.0981
41.8221	-5.5476
41.8313	23.8265
41.8406	-4.5787
41.8498	2.6723
41.8590	34.1316
41.8682	-16.1540
41.8775	10.8322
41.8867	-11.3782
41.8959	-7.2259
41.9051	17.3319
41.9143	-0.3649
41.9236	1.4383
41.9328	-1.5446
41.9420	16.5171
41.9512	29.8499
41.9605	1.7637
41.9697	5.6133
41.9789	-3.1334
41.9881	-1.0584
41.9973	-5.1714
42.0066	-0.8726
42.0158	-8.0791
42.0250	5.4320
42.0342	1.4976
42.0435	11.7461
42.0527	-0.5473
42.0619	6.8529
42.0711	12.4318
42.0803	10.2786
42.0896	8.6791
42.0988	25.7441
42.1080	-3.7534
42.1172	16.6054
42.1265	-16.0326
42.1357	33.7677
42.1449	-0.9612
42.1541	33.1238
42.1634	-9.1443
42.1726	0.0987
42.1818	15.9144
42.1910	16.4954
42.2002	4.9955
42.2095	3.4672
42.2187	-14.5128
42.2279	0.7562
42.2371	8.8743
42.2464	32.3946
42.2556	14.8358
42.2648	-2.6984
42.2740	18.9539
42.2832	2.2346
42.2925	2.5919
42.3017	36.7627
42.3109	-15.1077
42.3201	18.0399
42.3294	-3.5276
42.3386	-2.9431
42.3478	7.1292
42.3570	27.2798
42.3663	8.3429
42.3755	11.5734
42.3847	20.8457
42.3939	-1.7369
42.4031	-19.8609
42.4124	26.3728
42.4216	17.3747
42.4308	26.9720
42.4400	2.3861
42.4493	-6.4105
42.4585	-20.6617
42.4677	16.0613
42.4769	14.9150
42.4861	6.7348
42.4954	20.6094
42.5046	15.5068
42.5138	-13.8299
42.5230	-7.0053
42.5323	9.7473
42.5415	17.2088
42.5507	-0.7164
42.5599	23.7811
42.5691	4.2204
42.5784	6.2765
42.5876	9.8687
42.5968	34.8673
42.6060	13.8262
42.6153	5.4244
42.6245	11.0882
42.6337	8.0332
42.6429	10.9899
42.6522	-4.1248
42.6614	18.7683
42.6706	17.1770
42.6798	-3.4641
42.6890	-4.6330
42.6983	19.3123
42.7075	-17.5601
42.7167	9.3813
42.7259	10.9850
42.7352	-7.9616
42.7444	-12.3320
42.7536	11.0311
42.7628	7.7004
42.7720	-1.8996
42.7813	4.8395
42.7905	21.9791
42.7997	-13.0067
42.8089	13.1561
42.8182	21.7435
42.8274	-9.5292
42.8366	4.0735
42.8458	25.2447
42.8551	-6.2310
42.8643	-5.3314
42.8735	-12.9058
42.8827	22.3451
42.8919	4.8868
42.9012	15.0542
42.9104	-0.3150
42.9196	20.1765
42.9288	11.5553
42.9381	2.0635
42.9473	15.9362
42.9565	16.2220
42.9657	11.1727
42.9749	33.8711
42.9842	18.0925
42.9934	3.3411
43.0026	10.6779
43.0118	5.9544
43.0211	17.2723
43.0303	18.3345
43.0395	16.8446
43.0487	4.1994
43.0580	18.1195
43.0672	0.7567
43.0764	40.9735
43.0856	-10.2970
43.0948	2.8706
43.1041	8.0414
43.1133	16.4900
43.1225	13.1761
43.1317	8.9818
43.1410	36.6962
43.1502	9.3721
43.1594	5.3550
43.1686	-2.2475
43.1778	-1.3623
43.1871	20.3448
43.1963	5.7181
43.2055	21.3086
43.2147	-4.8535
43.2240	9.2396
43.2332	-13.6746
43.2424	-0.6878
43.2516	-5.1381
43.2608	9.6214
43.2701	22.8103
43.2793	-5.4177
43.2885	11.0727
43.2977	24.4567
43.3070	13.5185
43.3162	2.3507
43.3254	-6.8104
43.3346	11.6904
43.3439	17.9341
43.3531	12.9005
43.3623	24.2970
43.3715	7.1360
43.3807	4.2129
43.3900	-4.1018
43.3992	-4.1869
43.4084	18.5434
43.4176	-10.5102
43.4269	31.0806
43.4361	19.6894
43.4453	34.5339
43.4545	-6.3286
43.4637	-8.5963
43.4730	-7.7897
43.4822	9.2566
43.4914	19.9031
43.5006	-6.0990
43.5099	13.6638
43.5191	21.0152
43.5283	15.4590
43.5375	3.3483
43.5468	14.5475
43.5560	23.8272
43.5652	24.9693
43.5744	45.3043
43.5836	16.8306
43.5929	-7.6884
43.6021	0.0644
43.6113	26.7481
43.6205	29.4164
43.6298	4.0563
43.6390	22.0208
43.6482	15.9091
43.6574	12.6997
43.6666	22.5579
43.6759	23.7769
43.6851	18.4689
43.6943	11.6546
43.7035	11.6586
43.7128	2.7244
43.7220	5.7026
43.7312	9.3508
43.7404	14.5231
43.7496	14.9809
43.7589	3.6276
43.7681	-1.4148
43.7773	34.4789
43.7865	-0.2751
43.7958	0.1113
43.8050	-2.1385
43.8142	18.8784
43.8234	6.6678
43.8327	1.0937
43.8419	-7.5657
43.8511	-13.1592
43.8603	13.7627
43.8695	11.1222
43.8788	2.4148
43.8880	17.9314
43.8972	16.7114
43.9064	2.1496
43.9157	-2.6519
43.9249	7.2361
43.9341	-1.9381
43.9433	6.9969
43.9525	-0.0597
43.9618	18.2319
43.9710	-8.4082
43.9802	29.1585
43.9894	21.0041
43.9987	20.5441
44.0079	2.8711
44.0171	-18.4823
44.0263	9.9557
44.0356	13.5855
44.0448	16.7829
44.0540	3.1258
44.0632	22.1897
44.0724	37.8327
44.0817	19.7512
44.0909	2.0504
44.1001	-14.6822
44.1093	-1.1181
44.1186	10.7964
44.1278	12.9632
44.1370	0.8560
44.1462	11.1914
44.1554	-4.3208
44.1647	14.4055
44.1739	13.5884
44.1831	19.8422
44.1923	31.7154
44.2016	18.0968
44.2108	17.6293
44.2200	11.1443
44.2292	13.0038
44.2385	17.2287
44.2477	20.6961
44.2569	4.3873
44.2661	3.2221
44.2753	-15.1227
44.2846	5.4501
44.2938	28.3683
44.3030	11.9242
44.3122	2.2429
44.3215	10.5888
44.3307	-12.0550
44.3399	4.3064
44.3491	16.8397
44.3583	11.5925
44.3676	24.4896
44.3768	-3.9613
44.3860	18.1355
44.3952	8.8222
44.4045	-3.5386
44.4137	33.0866
44.4229	6.3121
44.4321	-15.2820
44.4413	-0.1562
44.4506	-5.6495
44.4598	20.0248
44.4690	19.5620
44.4782	-7.3271
44.4875	3.3667
44.4967	40.9682
44.5059	14.2984
44.5151	28.8433
44.5244	-1.0945
44.5336	3.4312
44.5428	2.3220
44.5520	9.4712
44.5612	35.6195
44.5705	-6.0667
44.5797	-11.6718
44.5889	8.1823
44.5981	-2.4420
44.6074	27.2117
44.6166	18.3032
44.6258	10.8744
44.6350	7.7955
44.6442	-2.7293
44.6535	15.8815
44.6627	19.6302
44.6719	-5.2286
44.6811	-20.1086
44.6904	7.4292
44.6996	-1.1116
44.7088	31.4280
44.7180	36.8457
44.7273	26.2675
44.7365	0.7165
44.7457	6.4997
44.7549	11.2068
44.7641	-3.2069
44.7734	3.1745
44.7826	9.2605
44.7918	-4.2873
44.8010	5.5552
44.8103	10.6624
44.8195	8.0414
44.8287	12.7720
44.8379	4.3666
44.8471	-0.0926
44.8564	21.3087
44.8656	20.8660
44.8748	9.6382
44.8840	20.6583
44.8933	-7.0153
44.9025	-11.6662
44.9117	8.7503
44.9209	8.8209
44.9301	-3.7814
44.9394	10.9195
44.9486	15.7325
44.9578	36.5829
44.9670	23.8920
44.9763	18.9430
44.9855	19.4626
44.9947	12.4250
45.0039	-4.6416
45.0132	-2.8549
45.0224	10.9740
45.0316	16.1810
45.0408	16.3148
45.0500	15.1416
45.0593	3.0318
45.0685	20.2881
45.0777	-0.1127
45.0869	9.0782
45.0962	-5.3931
45.1054	14.9673
45.1146	9.6990
45.1238	15.8513
45.1330	-16.8340
45.1423	-10.0525
45.1515	17.8426
45.1607	2.2413
45.1699	8.3449
45.1792	19.0709
45.1884	17.1376
45.1976	18.9112
45.2068	27.1530
45.2161	5.9342
45.2253	-21.0862
45.2345	-4.9226
45.2437	6.5933
45.2529	19.0659
45.2622	-0.9842
45.2714	-8.8634
45.2806	7.1687
45.2898	6.9823
45.2991	17.5141
45.3083	-9.3876
45.3175	-3.6224
45.3267	15.9292
45.3359	-10.5585
45.3452	17.5059
45.3544	7.7535
45.3636	2.2453
45.3728	7.7292
45.3821	7.4813
45.3913	13.1986
45.4005	-11.0032
45.4097	4.3129
45.4190	20.9726
45.4282	21.4947
45.4374	8.3535
45.4466	-2.4908
45.4558	13.4138
45.4651	-0.2326
45.4743	5.0016
45.4835	-8.2970
45.4927	-6.4513
45.5020	2.6292
45.5112	21.1365
45.5204	6.9075
45.5296	3.4205
45.5388	13.3669
45.5481	23.8273
45.5573	9.8144
45.5665	6.0339
45.5757	-4.7909
45.5850	10.9226
45.5942	3.3020
45.6034	-5.3797
45.6126	2.5648
45.6218	8.6531
45.6311	1.6301
45.6403	6.7615
45.6495	7.3690
45.6587	4.9575
45.6680	-4.1523
45.6772	-4.6949
45.6864	-2.3045
45.6956	3.9769
45.7049	16.0124
45.7141	9.0107
45.7233	2.3190
45.7325	-0.7455
45.7417	0.8501
45.7510	10.3576
45.7602	-7.5222
45.7694	21.3951
45.7786	15.3585
45.7879	-2.2904
45.7971	24.9854
45.8063	0.2777
45.8155	34.8979
45.8247	2.6263
45.8340	-0.4424
45.8432	-13.3908
45.8524	2.3859
45.8616	4.7124
45.8709	11.6479
45.8801	-9.4795
45.8893	9.5010
45.8985	12.5782
45.9078	10.9772
45.9170	0.3934
45.9262	15.6458
45.9354	7.9039
45.9446	27.1279
45.9539	9.4759
45.9631	20.5468
45.9723	6.3281
45.9815	13.5095
45.9908	-2.5211
46.0000	-7.5484
46.0092	-26.1180
46.0184	24.6705
46.0276	7.5232
46.0369	0.6225
46.0461	7.6632
46.0553	34.2950
46.0645	-6.5085
46.0738	10.9658
46.0830	-15.7862
46.0922	-1.1099
46.1014	-0.7058
46.1106	15.6324
46.1199	-1.5090
46.1291	11.0687
46.1383	19.5919
46.1475	-2.9039
46.1568	8.5229
46.1660	6.6534
46.1752	3.6527
46.1844	3.5856
46.1937	-6.5441
46.2029	-1.0360
46.2121	2.3483
46.2213	5.4052
46.2305	-1.5108
46.2398	0.2832
46.2490	12.3766
46.2582	-5.6852
46.2674	-3.7094
46.2767	-5.1184
46.2859	8.3778
46.2951	13.4671
46.3043	10.0968
46.3135	2.2465
46.3228	4.4807
46.3320	-3.4349
46.3412	-5.3548
46.3504	1.8168
46.3597	11.1512
46.3689	16.0911
46.3781	6.0244
46.3873	7.8656
46.3966	-5.3274
46.4058	0.6071
46.4150	-1.8780
46.4242	26.0678
46.4334	-1.1487
46.4427	0.6999
46.4519	19.6019
46.4611	6.3290
46.4703	10.8459
46.4796	-0.9904
46.4888	25.7947
46.4980	9.6356
46.5072	-8.0657
46.5164	11.4613
46.5257	6.5160
46.5349	2.0986
46.5441	-14.3189
46.5533	5.0647
46.5626	-13.6887
46.5718	13.8661
46.5810	3.2032
46.5902	-4.8354
46.5995	4.2930
46.6087	11.9184
46.6179	17.6797
46.6271	16.8370
46.6363	1.3804
46.6456	9.7119
46.6548	5.3538
46.6640	2.5485
46.6732	-1.8913
46.6825	16.5138
46.6917	6.5183
46.7009	1.7830
46.7101	10.1277
46.7193	-24.0561
46.7286	8.7981
46.7378	-5.3828
46.7470	-11.4781
46.7562	12.9214
46.7655	16.1914
46.7747	0.8652
46.7839	6.1991
46.7931	-7.0069
46.8023	22.6382
46.8116	-0.2236
46.8208	11.4620
46.8300	11.8330
46.8392	7.0983
46.8485	-1.3980
46.8577	29.4469
46.8669	17.9965
46.8761	-0.4593
46.8854	9.1100
46.8946	4.8766
46.9038	-13.0932
46.9130	16.7883
46.9222	-12.9911
46.9315	-7.1446
46.9407	-7.3196
46.9499	13.3146
46.9591	21.1426
46.9684	13.1039
46.9776	-1.9345
46.9868	-2.1657
46.9960	0.4828
47.0052	-3.5508
47.0145	12.6379
47.0237	3.2790
47.0329	-5.8446
47.0421	3.2657
47.0514	26.8009
47.0606	1.0031
47.0698	1.0063
47.0790	-2.1979
47.0883	7.6368
47.0975	-9.6107
47.1067	15.7717
47.1159	9.4899
47.1251	24.3144
47.1344	6.3668
47.1436	2.6494
47.1528	2.7261
47.1620	2.2837
47.1713	-8.4784
47.1805	13.2247
47.1897	9.3116
47.1989	22.1894
47.2081	-8.7879
47.2174	5.5635
47.2266	38.0133
47.2358	8.3213
47.2450	10.9167
47.2543	-1.9978
47.2635	-1.0875
47.2727	9.1916
47.2819	-3.5714
47.2911	-7.7631
47.3004	15.0900
47.3096	4.2166
47.3188	-0.9457
47.3280	12.8153
47.3373	20.9647
47.3465	-8.3567
47.3557	4.6018
47.3649	-1.7411
47.3742	35.8100
47.3834	12.9799
47.3926	10.4288
47.4018	15.3019
47.4110	1.3452
47.4203	12.3744
47.4295	1.5483
47.4387	8.2049
47.4479	-2.1512
47.4572	26.0215
47.4664	7.3195
47.4756	24.0665
47.4848	18.5451
47.4940	-16.6528
47.5033	15.3803
47.5125	28.7222
47.5217	-5.4468
47.5309	-3.4359
47.5402	18.5401
47.5494	1.2993
47.5586	11.1547
47.5678	22.4171
47.5771	12.5419
47.5863	11.6947
47.5955	24.9139
47.6047	11.9247
47.6139	19.3241
47.6232	34.5440
47.6324	16.0307
47.6416	-6.0620
47.6508	9.9617
47.6601	4.9723
47.6693	1.8787
47.6785	-8.2010
47.6877	6.2681
47.6969	2.7242
47.7062	0.5032
47.7154	10.5371
47.7246	9.4588
47.7338	4.7700
47.7431	-6.0714
47.7523	19.9433
47.7615	7.0224
47.7707	24.2806
47.7800	18.2188
47.7892	24.4185
47.7984	29.9979
47.8076	21.0187
47.8168	19.7753
47.8261	16.6778
47.8353	-0.2618
47.8445	5.1299
47.8537	-7.3952
47.8630	-7.3992
47.8722	-2.3764
47.8814	2.5855
47.8906	0.1864
47.8998	0.2229
47.9091	17.1005
47.9183	-3.3426
47.9275	-1.6889
47.9367	-5.0314
47.9460	-5.8726
47.9552	4.4364
47.9644	-3.6886
47.9736	7.5789
47.9828	-7.6434
47.9921	-11.5342
48.0013	-9.6880
