11.0000	999.0000
11.0092	1030.0000
11.0184	972.0000
11.0277	1018.0000
11.0369	962.0000
11.0461	907.0000
11.0553	1067.0000
11.0646	1012.0000
11.0738	1023.0000
11.0830	1040.0000
11.0922	1013.0000
11.1014	975.0000
11.1107	977.0000
11.1199	960.0000
11.1291	982.0000
11.1383	972.0000
11.1476	937.0000
11.1568	964.0000
11.1660	950.0000
11.1752	952.0000
11.1845	971.0000
11.1937	958.0000
11.2029	979.0000
11.2121	938.0000
11.2213	938.0000
11.2306	1003.0000
11.2398	939.0000
11.2490	969.0000
11.2582	948.0000
11.2675	946.0000
11.2767	909.0000
11.2859	992.0000
11.2951	976.0000
11.3043	915.0000
11.3136	851.0000
11.3228	888.0000
11.3320	904.0000
11.3412	878.0000
11.3505	866.0000
11.3597	901.0000
11.3689	891.0000
11.3781	905.0000
11.3874	931.0000
11.3966	853.0000
11.4058	922.0000
11.4150	872.0000
11.4242	902.0000
11.4335	902.0000
11.4427	906.0000
11.4519	865.0000
11.4611	890.0000
11.4704	893.0000
11.4796	863.0000
11.4888	862.0000
11.4980	883.0000
11.5072	863.0000
11.5165	873.0000
11.5257	824.0000
11.5349	839.0000
11.5441	859.0000
11.5534	818.0000
11.5626	847.0000
11.5718	823.0000
11.5810	868.0000
11.5902	824.0000
11.5995	852.0000
11.6087	831.0000
11.6179	831.0000
11.6271	881.0000
11.6364	822.0000
11.6456	884.0000
11.6548	877.0000
11.6640	844.0000
11.6733	848.0000
11.6825	834.0000
11.6917	843.0000
11.7009	823.0000
11.7101	802.0000
11.7194	851.0000
11.7286	772.0000
11.7378	844.0000
11.7470	780.0000
11.7563	810.0000
11.7655	840.0000
11.7747	770.0000
11.7839	845.0000
11.7931	785.0000
11.8024	792.0000
11.8116	780.0000
11.8208	760.0000
11.8300	774.0000
11.8393	756.0000
11.8485	805.0000
11.8577	779.0000
11.8669	807.0000
11.8762	778.0000
11.8854	763.0000
11.8946	748.0000
11.9038	744.0000
11.9130	769.0000
11.9223	775.0000
11.9315	746.0000
11.9407	786.0000
11.9499	764.0000
11.9592	794.0000
11.9684	747.0000
11.9776	762.0000
11.9868	769.0000
11.9960	742.0000
12.0053	784.0000
12.0145	733.0000
12.0237	747.0000
12.0329	759.0000
12.0422	774.0000
12.0514	762.0000
12.0606	725.0000
12.0698	731.0000
12.0791	752.0000
12.0883	711.0000
12.0975	695.0000
12.1067	752.0000
12.1159	709.0000
12.1252	706.0000
12.1344	676.0000
12.1436	718.0000
12.1528	727.0000
12.1621	720.0000
12.1713	686.0000
12.1805	733.0000
12.1897	696.0000
12.1989	696.0000
12.2082	688.0000
12.2174	687.0000
12.2266	720.0000
12.2358	714.0000
12.2451	713.0000
12.2543	741.0000
12.2635	701.0000
12.2727	765.0000
12.2819	718.0000
12.2912	711.0000
12.3004	694.0000
12.3096	653.0000
12.3188	730.0000
12.3281	661.0000
12.3373	677.0000
12.3465	692.0000
12.3557	658.0000
12.3650	669.0000
12.3742	662.0000
12.3834	705.0000
12.3926	651.0000
12.4018	668.0000
12.4111	664.0000
12.4203	684.0000
12.4295	647.0000
12.4387	672.0000
12.4480	708.0000
12.4572	659.0000
12.4664	654.0000
12.4756	659.0000
12.4848	670.0000
12.4941	675.0000
12.5033	674.0000
12.5125	656.0000
12.5217	638.0000
12.5310	636.0000
12.5402	680.0000
12.5494	688.0000
12.5586	652.0000
12.5679	655.0000
12.5771	610.0000
12.5863	646.0000
12.5955	654.0000
12.6047	601.0000
12.6140	652.0000
12.6232	664.0000
12.6324	650.0000
12.6416	636.0000
12.6509	669.0000
12.6601	645.0000
12.6693	648.0000
12.6785	648.0000
12.6877	632.0000
12.6970	656.0000
12.7062	622.0000
12.7154	618.0000
12.7246	653.0000
12.7339	641.0000
12.7431	635.0000
12.7523	577.0000
12.7615	635.0000
12.7707	618.0000
12.7800	609.0000
12.7892	634.0000
12.7984	632.0000
12.8076	635.0000
12.8169	633.0000
12.8261	599.0000
12.8353	598.0000
12.8445	649.0000
12.8538	687.0000
12.8630	740.0000
12.8722	725.0000
12.8814	643.0000
12.8906	613.0000
12.8999	599.0000
12.9091	654.0000
12.9183	666.0000
12.9275	680.0000
12.9368	727.0000
12.9460	739.0000
12.9552	789.0000
12.9644	992.0000
12.9736	1444.0000
12.9829	1855.0000
12.9921	1847.0000
13.0013	1372.0000
13.0105	931.0000
13.0198	735.0000
13.0290	709.0000
13.0382	840.0000
13.0474	986.0000
13.0567	1296.0000
13.0659	1246.0000
13.0751	1046.0000
13.0843	760.0000
13.0935	658.0000
13.1028	578.0000
13.1120	585.0000
13.1212	577.0000
13.1304	545.0000
13.1397	550.0000
13.1489	610.0000
13.1581	604.0000
13.1673	568.0000
13.1765	561.0000
13.1858	573.0000
13.1950	580.0000
13.2042	515.0000
13.2134	555.0000
13.2227	607.0000
13.2319	559.0000
13.2411	577.0000
13.2503	563.0000
13.2596	567.0000
13.2688	510.0000
13.2780	558.0000
13.2872	525.0000
13.2964	531.0000
13.3057	557.0000
13.3149	550.0000
13.3241	534.0000
13.3333	532.0000
13.3426	524.0000
13.3518	514.0000
13.3610	561.0000
13.3702	544.0000
13.3794	512.0000
13.3887	548.0000
13.3979	558.0000
13.4071	534.0000
13.4163	524.0000
13.4256	519.0000
13.4348	535.0000
13.4440	557.0000
13.4532	481.0000
13.4624	520.0000
13.4717	536.0000
13.4809	517.0000
13.4901	532.0000
13.4993	538.0000
13.5086	520.0000
13.5178	558.0000
13.5270	524.0000
13.5362	485.0000
13.5455	528.0000
13.5547	501.0000
13.5639	501.0000
13.5731	475.0000
13.5823	542.0000
13.5916	537.0000
13.6008	502.0000
13.6100	516.0000
13.6192	524.0000
13.6285	498.0000
13.6377	478.0000
13.6469	526.0000
13.6561	493.0000
13.6653	486.0000
13.6746	505.0000
13.6838	494.0000
13.6930	504.0000
13.7022	470.0000
13.7115	493.0000
13.7207	536.0000
13.7299	485.0000
13.7391	520.0000
13.7484	481.0000
13.7576	539.0000
13.7668	499.0000
13.7760	516.0000
13.7852	494.0000
13.7945	515.0000
13.8037	494.0000
13.8129	559.0000
13.8221	509.0000
13.8314	491.0000
13.8406	475.0000
13.8498	508.0000
13.8590	475.0000
13.8682	515.0000
13.8775	528.0000
13.8867	499.0000
13.8959	486.0000
13.9051	483.0000
13.9144	490.0000
13.9236	476.0000
13.9328	463.0000
13.9420	480.0000
13.9512	495.0000
13.9605	505.0000
13.9697	520.0000
13.9789	501.0000
13.9881	478.0000
13.9974	509.0000
14.0066	471.0000
14.0158	459.0000
14.0250	437.0000
14.0343	489.0000
14.0435	468.0000
14.0527	451.0000
14.0619	442.0000
14.0711	492.0000
14.0804	459.0000
14.0896	445.0000
14.0988	502.0000
14.1080	450.0000
14.1173	452.0000
14.1265	407.0000
14.1357	452.0000
14.1449	420.0000
14.1541	464.0000
14.1634	455.0000
14.1726	458.0000
14.1818	479.0000
14.1910	481.0000
14.2003	460.0000
14.2095	436.0000
14.2187	474.0000
14.2279	451.0000
14.2372	478.0000
14.2464	449.0000
14.2556	433.0000
14.2648	434.0000
14.2740	452.0000
14.2833	466.0000
14.2925	491.0000
14.3017	452.0000
14.3109	457.0000
14.3202	426.0000
14.3294	430.0000
14.3386	405.0000
14.3478	442.0000
14.3570	430.0000
14.3663	437.0000
14.3755	486.0000
14.3847	477.0000
14.3939	426.0000
14.4032	448.0000
14.4124	432.0000
14.4216	411.0000
14.4308	452.0000
14.4401	443.0000
14.4493	446.0000
14.4585	429.0000
14.4677	428.0000
14.4769	432.0000
14.4862	449.0000
14.4954	449.0000
14.5046	412.0000
14.5138	439.0000
14.5231	423.0000
14.5323	465.0000
14.5415	458.0000
14.5507	463.0000
14.5599	441.0000
14.5692	471.0000
14.5784	426.0000
14.5876	415.0000
14.5968	420.0000
14.6061	469.0000
14.6153	418.0000
14.6245	436.0000
14.6337	441.0000
14.6429	436.0000
14.6522	461.0000
14.6614	451.0000
14.6706	462.0000
14.6798	411.0000
14.6891	461.0000
14.6983	444.0000
14.7075	446.0000
14.7167	415.0000
14.7260	415.0000
14.7352	453.0000
14.7444	417.0000
14.7536	450.0000
14.7628	426.0000
14.7721	428.0000
14.7813	438.0000
14.7905	446.0000
14.7997	455.0000
14.8090	438.0000
14.8182	421.0000
14.8274	464.0000
14.8366	411.0000
14.8458	422.0000
14.8551	427.0000
14.8643	426.0000
14.8735	438.0000
14.8827	391.0000
14.8920	427.0000
14.9012	410.0000
14.9104	470.0000
14.9196	421.0000
14.9289	440.0000
14.9381	446.0000
14.9473	396.0000
14.9565	448.0000
14.9657	410.0000
14.9750	402.0000
14.9842	402.0000
14.9934	397.0000
15.0026	383.0000
15.0119	423.0000
15.0211	394.0000
15.0303	437.0000
15.0395	381.0000
15.0487	419.0000
15.0580	423.0000
15.0672	395.0000
15.0764	414.0000
15.0856	425.0000
15.0949	372.0000
15.1041	384.0000
15.1133	373.0000
15.1225	407.0000
15.1317	418.0000
15.1410	405.0000
15.1502	408.0000
15.1594	397.0000
15.1686	383.0000
15.1779	419.0000
15.1871	394.0000
15.1963	415.0000
15.2055	429.0000
15.2148	416.0000
15.2240	402.0000
15.2332	383.0000
15.2424	390.0000
15.2516	391.0000
15.2609	378.0000
15.2701	416.0000
15.2793	429.0000
15.2885	409.0000
15.2978	414.0000
15.3070	402.0000
15.3162	386.0000
15.3254	425.0000
15.3346	386.0000
15.3439	404.0000
15.3531	383.0000
15.3623	393.0000
15.3715	436.0000
15.3808	388.0000
15.3900	376.0000
15.3992	370.0000
15.4084	416.0000
15.4177	399.0000
15.4269	404.0000
15.4361	404.0000
15.4453	394.0000
15.4545	373.0000
15.4638	432.0000
15.4730	389.0000
15.4822	388.0000
15.4914	361.0000
15.5007	402.0000
15.5099	366.0000
15.5191	379.0000
15.5283	381.0000
15.5375	368.0000
15.5468	381.0000
15.5560	379.0000
15.5652	415.0000
15.5744	434.0000
15.5837	385.0000
15.5929	377.0000
15.6021	377.0000
15.6113	399.0000
15.6206	403.0000
15.6298	338.0000
15.6390	371.0000
15.6482	378.0000
15.6574	373.0000
15.6667	382.0000
15.6759	386.0000
15.6851	395.0000
15.6943	354.0000
15.7036	379.0000
15.7128	358.0000
15.7220	374.0000
15.7312	362.0000
15.7404	365.0000
15.7497	372.0000
15.7589	387.0000
15.7681	366.0000
15.7773	347.0000
15.7866	344.0000
15.7958	369.0000
15.8050	368.0000
15.8142	350.0000
15.8234	378.0000
15.8327	395.0000
15.8419	382.0000
15.8511	379.0000
15.8603	320.0000
15.8696	396.0000
15.8788	369.0000
15.8880	384.0000
15.8972	388.0000
15.9065	390.0000
15.9157	425.0000
15.9249	398.0000
15.9341	346.0000
15.9433	349.0000
15.9526	367.0000
15.9618	364.0000
15.9710	360.0000
15.9802	370.0000
15.9895	332.0000
15.9987	383.0000
16.0079	389.0000
16.0171	347.0000
16.0263	362.0000
16.0356	375.0000
16.0448	358.0000
16.0540	347.0000
16.0632	358.0000
16.0725	360.0000
16.0817	340.0000
16.0909	369.0000
16.1001	376.0000
16.1094	362.0000
16.1186	340.0000
16.1278	336.0000
16.1370	333.0000
16.1462	359.0000
16.1555	358.0000
16.1647	363.0000
16.1739	353.0000
16.1831	370.0000
16.1924	353.0000
16.2016	335.0000
16.2108	333.0000
16.2200	333.0000
16.2292	358.0000
16.2385	383.0000
16.2477	302.0000
16.2569	355.0000
16.2661	375.0000
16.2754	321.0000
16.2846	347.0000
16.2938	388.0000
16.3030	381.0000
16.3122	367.0000
16.3215	360.0000
16.3307	373.0000
16.3399	347.0000
16.3491	307.0000
16.3584	346.0000
16.3676	331.0000
16.3768	372.0000
16.3860	333.0000
16.3953	336.0000
16.4045	340.0000
16.4137	346.0000
16.4229	340.0000
16.4321	360.0000
16.4414	323.0000
16.4506	348.0000
16.4598	337.0000
16.4690	326.0000
16.4783	356.0000
16.4875	327.0000
16.4967	332.0000
16.5059	334.0000
16.5151	365.0000
16.5244	346.0000
16.5336	333.0000
16.5428	305.0000
16.5520	336.0000
16.5613	319.0000
16.5705	344.0000
16.5797	359.0000
16.5889	334.0000
16.5982	324.0000
16.6074	332.0000
16.6166	332.0000
16.6258	334.0000
16.6350	345.0000
16.6443	333.0000
16.6535	353.0000
16.6627	352.0000
16.6719	361.0000
16.6812	337.0000
16.6904	332.0000
16.6996	322.0000
16.7088	333.0000
16.7180	315.0000
16.7273	332.0000
16.7365	313.0000
16.7457	306.0000
16.7549	360.0000
16.7642	301.0000
16.7734	343.0000
16.7826	328.0000
16.7918	320.0000
16.8011	333.0000
16.8103	336.0000
16.8195	306.0000
16.8287	329.0000
16.8379	324.0000
16.8472	321.0000
16.8564	331.0000
16.8656	337.0000
16.8748	304.0000
16.8841	356.0000
16.8933	294.0000
16.9025	332.0000
16.9117	312.0000
16.9209	331.0000
16.9302	295.0000
16.9394	321.0000
16.9486	306.0000
16.9578	331.0000
16.9671	340.0000
16.9763	330.0000
16.9855	322.0000
16.9947	309.0000
17.0039	303.0000
17.0132	339.0000
17.0224	315.0000
17.0316	328.0000
17.0408	296.0000
17.0501	318.0000
17.0593	304.0000
17.0685	338.0000
17.0777	318.0000
17.0870	322.0000
17.0962	293.0000
17.1054	330.0000
17.1146	310.0000
17.1238	309.0000
17.1331	300.0000
17.1423	316.0000
17.1515	358.0000
17.1607	302.0000
17.1700	322.0000
17.1792	300.0000
17.1884	353.0000
17.1976	343.0000
17.2068	282.0000
17.2161	298.0000
17.2253	308.0000
17.2345	313.0000
17.2437	304.0000
17.2530	332.0000
17.2622	321.0000
17.2714	310.0000
17.2806	272.0000
17.2899	321.0000
17.2991	304.0000
17.3083	313.0000
17.3175	314.0000
17.3267	317.0000
17.3360	283.0000
17.3452	328.0000
17.3544	299.0000
17.3636	321.0000
17.3729	287.0000
17.3821	285.0000
17.3913	291.0000
17.4005	292.0000
17.4097	296.0000
17.4190	305.0000
17.4282	263.0000
17.4374	299.0000
17.4466	265.0000
17.4559	294.0000
17.4651	281.0000
17.4743	314.0000
17.4835	278.0000
17.4927	281.0000
17.5020	320.0000
17.5112	281.0000
17.5204	333.0000
17.5296	304.0000
17.5389	281.0000
17.5481	316.0000
17.5573	302.0000
17.5665	334.0000
17.5758	283.0000
17.5850	283.0000
17.5942	272.0000
17.6034	302.0000
17.6126	289.0000
17.6219	299.0000
17.6311	310.0000
17.6403	267.0000
17.6495	280.0000
17.6588	296.0000
17.6680	297.0000
17.6772	277.0000
17.6864	299.0000
17.6956	266.0000
17.7049	309.0000
17.7141	273.0000
17.7233	293.0000
17.7325	285.0000
17.7418	318.0000
17.7510	267.0000
17.7602	283.0000
17.7694	297.0000
17.7787	294.0000
17.7879	247.0000
17.7971	311.0000
17.8063	314.0000
17.8155	254.0000
17.8248	255.0000
17.8340	259.0000
17.8432	297.0000
17.8524	276.0000
17.8617	308.0000
17.8709	294.0000
17.8801	276.0000
17.8893	264.0000
17.8985	286.0000
17.9078	280.0000
17.9170	274.0000
17.9262	276.0000
17.9354	289.0000
17.9447	317.0000
17.9539	279.0000
17.9631	261.0000
17.9723	275.0000
17.9816	273.0000
17.9908	277.0000
18.0000	267.0000
18.0092	260.0000
18.0184	278.0000
18.0277	268.0000
18.0369	260.0000
18.0461	269.0000
18.0553	300.0000
18.0646	256.0000
18.0738	286.0000
18.0830	306.0000
18.0922	286.0000
18.1014	276.0000
18.1107	285.0000
18.1199	263.0000
18.1291	260.0000
18.1383	272.0000
18.1476	261.0000
18.1568	285.0000
18.1660	283.0000
18.1752	269.0000
18.1844	265.0000
18.1937	263.0000
18.2029	294.0000
18.2121	242.0000
18.2213	264.0000
18.2306	263.0000
18.2398	270.0000
18.2490	275.0000
18.2582	285.0000
18.2675	283.0000
18.2767	263.0000
18.2859	286.0000
18.2951	300.0000
18.3043	283.0000
18.3136	269.0000
18.3228	300.0000
18.3320	271.0000
18.3412	264.0000
18.3505	285.0000
18.3597	280.0000
18.3689	278.0000
18.3781	265.0000
18.3873	290.0000
18.3966	250.0000
18.4058	272.0000
18.4150	290.0000
18.4242	270.0000
18.4335	299.0000
18.4427	265.0000
18.4519	257.0000
18.4611	273.0000
18.4704	303.0000
18.4796	280.0000
18.4888	249.0000
18.4980	264.0000
18.5072	263.0000
18.5165	252.0000
18.5257	257.0000
18.5349	283.0000
18.5441	259.0000
18.5534	264.0000
18.5626	239.0000
18.5718	272.0000
18.5810	260.0000
18.5902	269.0000
18.5995	261.0000
18.6087	287.0000
18.6179	243.0000
18.6271	255.0000
18.6364	258.0000
18.6456	262.0000
18.6548	281.0000
18.6640	258.0000
18.6732	295.0000
18.6825	271.0000
18.6917	271.0000
18.7009	277.0000
18.7101	255.0000
18.7194	248.0000
18.7286	261.0000
18.7378	272.0000
18.7470	286.0000
18.7563	289.0000
18.7655	285.0000
18.7747	266.0000
18.7839	262.0000
18.7931	279.0000
18.8024	275.0000
18.8116	282.0000
18.8208	285.0000
18.8300	283.0000
18.8393	291.0000
18.8485	263.0000
18.8577	275.0000
18.8669	277.0000
18.8761	295.0000
18.8854	268.0000
18.8946	267.0000
18.9038	256.0000
18.9130	260.0000
18.9223	274.0000
18.9315	264.0000
18.9407	274.0000
18.9499	281.0000
18.9592	257.0000
18.9684	303.0000
18.9776	272.0000
18.9868	261.0000
18.9960	247.0000
19.0053	266.0000
19.0145	262.0000
19.0237	279.0000
19.0329	286.0000
19.0422	283.0000
19.0514	287.0000
19.0606	261.0000
19.0698	259.0000
19.0790	308.0000
19.0883	288.0000
19.0975	258.0000
19.1067	276.0000
19.1159	256.0000
19.1252	266.0000
19.1344	267.0000
19.1436	260.0000
19.1528	252.0000
19.1621	250.0000
19.1713	290.0000
19.1805	254.0000
19.1897	294.0000
19.1989	271.0000
19.2082	259.0000
19.2174	253.0000
19.2266	237.0000
19.2358	294.0000
19.2451	269.0000
19.2543	258.0000
19.2635	268.0000
19.2727	245.0000
19.2819	297.0000
19.2912	248.0000
19.3004	285.0000
19.3096	282.0000
19.3188	284.0000
19.3281	258.0000
19.3373	274.0000
19.3465	293.0000
19.3557	263.0000
19.3649	293.0000
19.3742	285.0000
19.3834	244.0000
19.3926	266.0000
19.4018	273.0000
19.4111	250.0000
19.4203	282.0000
19.4295	297.0000
19.4387	263.0000
19.4480	285.0000
19.4572	291.0000
19.4664	251.0000
19.4756	278.0000
19.4848	259.0000
19.4941	267.0000
19.5033	278.0000
19.5125	279.0000
19.5217	267.0000
19.5310	277.0000
19.5402	267.0000
19.5494	292.0000
19.5586	284.0000
19.5678	252.0000
19.5771	270.0000
19.5863	263.0000
19.5955	260.0000
19.6047	292.0000
19.6140	257.0000
19.6232	315.0000
19.6324	292.0000
19.6416	242.0000
19.6509	285.0000
19.6601	273.0000
19.6693	250.0000
19.6785	281.0000
19.6877	282.0000
19.6970	253.0000
19.7062	306.0000
19.7154	287.0000
19.7246	291.0000
19.7339	272.0000
19.7431	280.0000
19.7523	279.0000
19.7615	285.0000
19.7707	261.0000
19.7800	260.0000
19.7892	276.0000
19.7984	272.0000
19.8076	278.0000
19.8169	253.0000
19.8261	301.0000
19.8353	307.0000
19.8445	258.0000
19.8537	266.0000
19.8630	273.0000
19.8722	277.0000
19.8814	254.0000
19.8906	291.0000
19.8999	265.0000
19.9091	297.0000
19.9183	286.0000
19.9275	283.0000
19.9368	264.0000
19.9460	270.0000
19.9552	286.0000
19.9644	269.0000
19.9736	273.0000
19.9829	280.0000
19.9921	286.0000
20.0013	281.0000
20.0105	267.0000
20.0198	297.0000
20.0290	266.0000
20.0382	276.0000
20.0474	288.0000
20.0566	247.0000
20.0659	284.0000
20.0751	302.0000
20.0843	262.0000
20.0935	262.0000
20.1028	253.0000
20.1120	286.0000
20.1212	257.0000
20.1304	245.0000
20.1397	286.0000
20.1489	276.0000
20.1581	248.0000
20.1673	260.0000
20.1765	273.0000
20.1858	250.0000
20.1950	284.0000
20.2042	262.0000
20.2134	268.0000
20.2227	287.0000
20.2319	257.0000
20.2411	250.0000
20.2503	222.0000
20.2595	288.0000
20.2688	289.0000
20.2780	277.0000
20.2872	268.0000
20.2964	237.0000
20.3057	250.0000
20.3149	290.0000
20.3241	292.0000
20.3333	264.0000
20.3426	296.0000
20.3518	271.0000
20.3610	259.0000
20.3702	276.0000
20.3794	259.0000
20.3887	287.0000
20.3979	263.0000
20.4071	274.0000
20.4163	261.0000
20.4256	243.0000
20.4348	261.0000
20.4440	258.0000
20.4532	250.0000
20.4624	269.0000
20.4717	252.0000
20.4809	274.0000
20.4901	289.0000
20.4993	234.0000
20.5086	251.0000
20.5178	297.0000
20.5270	292.0000
20.5362	259.0000
20.5454	285.0000
20.5547	294.0000
20.5639	231.0000
20.5731	282.0000
20.5823	289.0000
20.5916	288.0000
20.6008	263.0000
20.6100	273.0000
20.6192	266.0000
20.6285	266.0000
20.6377	272.0000
20.6469	303.0000
20.6561	266.0000
20.6653	273.0000
20.6746	270.0000
20.6838	270.0000
20.6930	301.0000
20.7022	269.0000
20.7115	259.0000
20.7207	270.0000
20.7299	265.0000
20.7391	270.0000
20.7483	269.0000
20.7576	266.0000
20.7668	296.0000
20.7760	290.0000
20.7852	261.0000
20.7945	269.0000
20.8037	272.0000
20.8129	282.0000
20.8221	277.0000
20.8314	268.0000
20.8406	244.0000
20.8498	280.0000
20.8590	265.0000
20.8682	261.0000
20.8775	257.0000
20.8867	245.0000
20.8959	269.0000
20.9051	272.0000
20.9144	235.0000
20.9236	249.0000
20.9328	268.0000
20.9420	282.0000
20.9512	275.0000
20.9605	270.0000
20.9697	279.0000
20.9789	266.0000
20.9881	263.0000
20.9974	277.0000
21.0066	241.0000
21.0158	284.0000
21.0250	294.0000
21.0342	266.0000
21.0435	268.0000
21.0527	258.0000
21.0619	268.0000
21.0711	239.0000
21.0804	284.0000
21.0896	264.0000
21.0988	261.0000
21.1080	239.0000
21.1173	253.0000
21.1265	285.0000
21.1357	217.0000
21.1449	265.0000
21.1541	269.0000
21.1634	245.0000
21.1726	269.0000
21.1818	282.0000
21.1910	269.0000
21.2003	262.0000
21.2095	261.0000
21.2187	263.0000
21.2279	253.0000
21.2371	241.0000
21.2464	259.0000
21.2556	268.0000
21.2648	246.0000
21.2740	265.0000
21.2833	275.0000
21.2925	277.0000
21.3017	279.0000
21.3109	251.0000
21.3202	293.0000
21.3294	275.0000
21.3386	243.0000
21.3478	253.0000
21.3570	233.0000
21.3663	244.0000
21.3755	278.0000
21.3847	278.0000
21.3939	275.0000
21.4032	283.0000
21.4124	262.0000
21.4216	268.0000
21.4308	292.0000
21.4400	257.0000
21.4493	259.0000
21.4585	259.0000
21.4677	271.0000
21.4769	280.0000
21.4862	288.0000
21.4954	285.0000
21.5046	244.0000
21.5138	234.0000
21.5231	325.0000
21.5323	276.0000
21.5415	261.0000
21.5507	276.0000
21.5599	256.0000
21.5692	273.0000
21.5784	266.0000
21.5876	273.0000
21.5968	262.0000
21.6061	270.0000
21.6153	232.0000
21.6245	284.0000
21.6337	264.0000
21.6429	264.0000
21.6522	283.0000
21.6614	257.0000
21.6706	266.0000
21.6798	238.0000
21.6891	252.0000
21.6983	242.0000
21.7075	246.0000
21.7167	263.0000
21.7259	262.0000
21.7352	250.0000
21.7444	273.0000
21.7536	276.0000
21.7628	260.0000
21.7721	261.0000
21.7813	283.0000
21.7905	256.0000
21.7997	276.0000
21.8090	279.0000
21.8182	235.0000
21.8274	263.0000
21.8366	248.0000
21.8458	274.0000
21.8551	264.0000
21.8643	263.0000
21.8735	273.0000
21.8827	263.0000
21.8920	300.0000
21.9012	264.0000
21.9104	261.0000
21.9196	258.0000
21.9288	268.0000
21.9381	268.0000
21.9473	252.0000
21.9565	267.0000
21.9657	270.0000
21.9750	261.0000
21.9842	239.0000
21.9934	262.0000
22.0026	266.0000
22.0119	228.0000
22.0211	250.0000
22.0303	285.0000
22.0395	286.0000
22.0487	265.0000
22.0580	270.0000
22.0672	230.0000
22.0764	283.0000
22.0856	277.0000
22.0949	266.0000
22.1041	261.0000
22.1133	242.0000
22.1225	236.0000
22.1317	248.0000
22.1410	288.0000
22.1502	250.0000
22.1594	250.0000
22.1686	250.0000
22.1779	261.0000
22.1871	274.0000
22.1963	263.0000
22.2055	255.0000
22.2147	255.0000
22.2240	265.0000
22.2332	279.0000
22.2424	267.0000
22.2516	267.0000
22.2609	250.0000
22.2701	228.0000
22.2793	247.0000
22.2885	251.0000
22.2978	255.0000
22.3070	231.0000
22.3162	285.0000
22.3254	260.0000
22.3346	259.0000
22.3439	281.0000
22.3531	281.0000
22.3623	263.0000
22.3715	271.0000
22.3808	248.0000
22.3900	247.0000
22.3992	259.0000
22.4084	264.0000
22.4176	292.0000
22.4269	299.0000
22.4361	270.0000
22.4453	294.0000
22.4545	260.0000
22.4638	259.0000
22.4730	259.0000
22.4822	282.0000
22.4914	242.0000
22.5007	289.0000
22.5099	249.0000
22.5191	269.0000
22.5283	278.0000
22.5375	280.0000
22.5468	269.0000
22.5560	265.0000
22.5652	244.0000
22.5744	262.0000
22.5837	250.0000
22.5929	243.0000
22.6021	275.0000
22.6113	278.0000
22.6205	265.0000
22.6298	270.0000
22.6390	293.0000
22.6482	268.0000
22.6574	265.0000
22.6667	250.0000
22.6759	284.0000
22.6851	237.0000
22.6943	281.0000
22.7036	267.0000
22.7128	280.0000
22.7220	270.0000
22.7312	260.0000
22.7404	250.0000
22.7497	248.0000
22.7589	282.0000
22.7681	285.0000
22.7773	259.0000
22.7866	269.0000
22.7958	263.0000
22.8050	264.0000
22.8142	286.0000
22.8234	259.0000
22.8327	245.0000
22.8419	234.0000
22.8511	274.0000
22.8603	292.0000
22.8696	251.0000
22.8788	264.0000
22.8880	264.0000
22.8972	264.0000
22.9064	282.0000
22.9157	264.0000
22.9249	291.0000
22.9341	270.0000
22.9433	271.0000
22.9526	285.0000
22.9618	264.0000
22.9710	264.0000
22.9802	250.0000
22.9895	259.0000
22.9987	237.0000
23.0079	285.0000
23.0171	264.0000
23.0263	257.0000
23.0356	251.0000
23.0448	249.0000
23.0540	264.0000
23.0632	234.0000
23.0725	239.0000
23.0817	258.0000
23.0909	266.0000
23.1001	265.0000
23.1093	265.0000
23.1186	301.0000
23.1278	242.0000
23.1370	254.0000
23.1462	260.0000
23.1555	297.0000
23.1647	266.0000
23.1739	286.0000
23.1831	254.0000
23.1924	257.0000
23.2016	245.0000
23.2108	241.0000
23.2200	259.0000
23.2292	237.0000
23.2385	249.0000
23.2477	254.0000
23.2569	247.0000
23.2661	259.0000
23.2754	242.0000
23.2846	226.0000
23.2938	253.0000
23.3030	269.0000
23.3122	239.0000
23.3215	268.0000
23.3307	258.0000
23.3399	254.0000
23.3491	253.0000
23.3584	248.0000
23.3676	231.0000
23.3768	294.0000
23.3860	274.0000
23.3952	265.0000
23.4045	235.0000
23.4137	268.0000
23.4229	253.0000
23.4321	265.0000
23.4414	246.0000
23.4506	235.0000
23.4598	254.0000
23.4690	251.0000
23.4783	264.0000
23.4875	260.0000
23.4967	258.0000
23.5059	257.0000
23.5151	240.0000
23.5244	262.0000
23.5336	252.0000
23.5428	288.0000
23.5520	273.0000
23.5613	246.0000
23.5705	277.0000
23.5797	227.0000
23.5889	253.0000
23.5981	246.0000
23.6074	281.0000
23.6166	266.0000
23.6258	268.0000
23.6350	257.0000
23.6443	265.0000
23.6535	231.0000
23.6627	256.0000
23.6719	275.0000
23.6812	238.0000
23.6904	266.0000
23.6996	272.0000
23.7088	244.0000
23.7180	284.0000
23.7273	268.0000
23.7365	242.0000
23.7457	226.0000
23.7549	261.0000
23.7642	275.0000
23.7734	234.0000
23.7826	272.0000
23.7918	245.0000
23.8010	225.0000
23.8103	259.0000
23.8195	245.0000
23.8287	273.0000
23.8379	252.0000
23.8472	265.0000
23.8564	287.0000
23.8656	236.0000
23.8748	268.0000
23.8841	275.0000
23.8933	232.0000
23.9025	244.0000
23.9117	281.0000
23.9209	269.0000
23.9302	264.0000
23.9394	256.0000
23.9486	244.0000
23.9578	240.0000
23.9671	258.0000
23.9763	255.0000
23.9855	251.0000
23.9947	254.0000
24.0039	256.0000
24.0132	238.0000
24.0224	280.0000
24.0316	278.0000
24.0408	246.0000
24.0501	264.0000
24.0593	256.0000
24.0685	257.0000
24.0777	254.0000
24.0869	265.0000
24.0962	260.0000
24.1054	260.0000
24.1146	271.0000
24.1238	247.0000
24.1331	252.0000
24.1423	235.0000
24.1515	271.0000
24.1607	245.0000
24.1700	258.0000
24.1792	281.0000
24.1884	245.0000
24.1976	239.0000
24.2068	274.0000
24.2161	262.0000
24.2253	253.0000
24.2345	259.0000
24.2437	244.0000
24.2530	269.0000
24.2622	224.0000
24.2714	290.0000
24.2806	229.0000
24.2898	265.0000
24.2991	265.0000
24.3083	250.0000
24.3175	240.0000
24.3267	274.0000
24.3360	280.0000
24.3452	292.0000
24.3544	284.0000
24.3636	249.0000
24.3729	237.0000
24.3821	272.0000
24.3913	257.0000
24.4005	296.0000
24.4097	238.0000
24.4190	246.0000
24.4282	248.0000
24.4374	245.0000
24.4466	247.0000
24.4559	261.0000
24.4651	277.0000
24.4743	282.0000
24.4835	257.0000
24.4927	249.0000
24.5020	272.0000
24.5112	280.0000
24.5204	278.0000
24.5296	251.0000
24.5389	248.0000
24.5481	233.0000
24.5573	272.0000
24.5665	277.0000
24.5757	257.0000
24.5850	250.0000
24.5942	254.0000
24.6034	271.0000
24.6126	244.0000
24.6219	237.0000
24.6311	285.0000
24.6403	240.0000
24.6495	251.0000
24.6588	245.0000
24.6680	262.0000
24.6772	259.0000
24.6864	246.0000
24.6956	250.0000
24.7049	251.0000
24.7141	259.0000
24.7233	274.0000
24.7325	256.0000
24.7418	261.0000
24.7510	218.0000
24.7602	265.0000
24.7694	276.0000
24.7786	247.0000
24.7879	270.0000
24.7971	258.0000
24.8063	273.0000
24.8155	255.0000
24.8248	257.0000
24.8340	282.0000
24.8432	267.0000
24.8524	254.0000
24.8617	285.0000
24.8709	291.0000
24.8801	285.0000
24.8893	285.0000
24.8985	255.0000
24.9078	252.0000
24.9170	253.0000
24.9262	278.0000
24.9354	258.0000
24.9447	283.0000
24.9539	266.0000
24.9631	264.0000
24.9723	280.0000
24.9815	318.0000
24.9908	393.0000
25.0000	493.0000
25.0092	519.0000
25.0184	554.0000
25.0277	551.0000
25.0369	453.0000
25.0461	341.0000
25.0553	299.0000
25.0646	289.0000
25.0738	280.0000
25.0830	292.0000
25.0922	279.0000
25.1014	260.0000
25.1107	242.0000
25.1199	266.0000
25.1291	273.0000
25.1383	359.0000
25.1476	375.0000
25.1568	396.0000
25.1660	397.0000
25.1752	398.0000
25.1844	382.0000
25.1937	309.0000
25.2029	257.0000
25.2121	246.0000
25.2213	296.0000
25.2306	247.0000
25.2398	288.0000
25.2490	244.0000
25.2582	272.0000
25.2674	306.0000
25.2767	279.0000
25.2859	257.0000
25.2951	278.0000
25.3043	269.0000
25.3136	270.0000
25.3228	249.0000
25.3320	265.0000
25.3412	270.0000
25.3505	246.0000
25.3597	262.0000
25.3689	287.0000
25.3781	260.0000
25.3873	247.0000
25.3966	224.0000
25.4058	276.0000
25.4150	279.0000
25.4242	267.0000
25.4335	269.0000
25.4427	280.0000
25.4519	273.0000
25.4611	254.0000
25.4703	279.0000
25.4796	244.0000
25.4888	262.0000
25.4980	288.0000
25.5072	282.0000
25.5165	260.0000
25.5257	246.0000
25.5349	270.0000
25.5441	301.0000
25.5534	280.0000
25.5626	276.0000
25.5718	253.0000
25.5810	260.0000
25.5902	285.0000
25.5995	278.0000
25.6087	302.0000
25.6179	259.0000
25.6271	245.0000
25.6364	257.0000
25.6456	270.0000
25.6548	264.0000
25.6640	269.0000
25.6732	285.0000
25.6825	259.0000
25.6917	235.0000
25.7009	288.0000
25.7101	263.0000
25.7194	281.0000
25.7286	239.0000
25.7378	262.0000
25.7470	253.0000
25.7562	240.0000
25.7655	288.0000
25.7747	288.0000
25.7839	255.0000
25.7931	273.0000
25.8024	271.0000
25.8116	253.0000
25.8208	246.0000
25.8300	278.0000
25.8393	260.0000
25.8485	270.0000
25.8577	283.0000
25.8669	293.0000
25.8761	245.0000
25.8854	285.0000
25.8946	293.0000
25.9038	281.0000
25.9130	288.0000
25.9223	261.0000
25.9315	275.0000
25.9407	267.0000
25.9499	289.0000
25.9591	249.0000
25.9684	254.0000
25.9776	251.0000
25.9868	297.0000
25.9960	252.0000
26.0053	280.0000
26.0145	238.0000
26.0237	283.0000
26.0329	258.0000
26.0422	259.0000
26.0514	273.0000
26.0606	288.0000
26.0698	270.0000
26.0790	266.0000
26.0883	277.0000
26.0975	270.0000
26.1067	284.0000
26.1159	274.0000
26.1252	250.0000
26.1344	232.0000
26.1436	341.0000
26.1528	257.0000
26.1620	233.0000
26.1713	311.0000
26.1805	276.0000
26.1897	256.0000
26.1989	259.0000
26.2082	287.0000
26.2174	277.0000
26.2266	290.0000
26.2358	255.0000
26.2451	268.0000
26.2543	297.0000
26.2635	262.0000
26.2727	280.0000
26.2819	269.0000
26.2912	255.0000
26.3004	273.0000
26.3096	283.0000
26.3188	273.0000
26.3281	282.0000
26.3373	262.0000
26.3465	246.0000
26.3557	270.0000
26.3649	306.0000
26.3742	281.0000
26.3834	263.0000
26.3926	283.0000
26.4018	276.0000
26.4111	269.0000
26.4203	273.0000
26.4295	254.0000
26.4387	291.0000
26.4479	287.0000
26.4572	268.0000
26.4664	310.0000
26.4756	270.0000
26.4848	256.0000
26.4941	249.0000
26.5033	243.0000
26.5125	264.0000
26.5217	291.0000
26.5310	266.0000
26.5402	255.0000
26.5494	296.0000
26.5586	292.0000
26.5678	283.0000
26.5771	270.0000
26.5863	263.0000
26.5955	300.0000
26.6047	289.0000
26.6140	285.0000
26.6232	265.0000
26.6324	274.0000
26.6416	309.0000
26.6508	279.0000
26.6601	290.0000
26.6693	251.0000
26.6785	274.0000
26.6877	318.0000
26.6970	303.0000
26.7062	289.0000
26.7154	307.0000
26.7246	275.0000
26.7339	290.0000
26.7431	283.0000
26.7523	273.0000
26.7615	255.0000
26.7707	264.0000
26.7800	267.0000
26.7892	250.0000
26.7984	235.0000
26.8076	268.0000
26.8169	269.0000
26.8261	273.0000
26.8353	282.0000
26.8445	283.0000
26.8537	283.0000
26.8630	252.0000
26.8722	271.0000
26.8814	273.0000
26.8906	282.0000
26.8999	277.0000
26.9091	272.0000
26.9183	272.0000
26.9275	277.0000
26.9367	291.0000
26.9460	233.0000
26.9552	266.0000
26.9644	294.0000
26.9736	284.0000
26.9829	299.0000
26.9921	271.0000
27.0013	265.0000
27.0105	286.0000
27.0198	285.0000
27.0290	264.0000
27.0382	277.0000
27.0474	274.0000
27.0566	250.0000
27.0659	280.0000
27.0751	303.0000
27.0843	271.0000
27.0935	268.0000
27.1028	288.0000
27.1120	260.0000
27.1212	312.0000
27.1304	293.0000
27.1396	273.0000
27.1489	308.0000
27.1581	282.0000
27.1673	293.0000
27.1765	279.0000
27.1858	301.0000
27.1950	313.0000
27.2042	291.0000
27.2134	274.0000
27.2227	269.0000
27.2319	266.0000
27.2411	285.0000
27.2503	273.0000
27.2595	315.0000
27.2688	287.0000
27.2780	312.0000
27.2872	289.0000
27.2964	262.0000
27.3057	300.0000
27.3149	279.0000
27.3241	324.0000
27.3333	289.0000
27.3425	287.0000
27.3518	307.0000
27.3610	276.0000
27.3702	290.0000
27.3794	280.0000
27.3887	287.0000
27.3979	300.0000
27.4071	272.0000
27.4163	290.0000
27.4256	293.0000
27.4348	271.0000
27.4440	283.0000
27.4532	285.0000
27.4624	287.0000
27.4717	280.0000
27.4809	254.0000
27.4901	278.0000
27.4993	280.0000
27.5086	291.0000
27.5178	258.0000
27.5270	284.0000
27.5362	317.0000
27.5454	271.0000
27.5547	258.0000
27.5639	320.0000
27.5731	294.0000
27.5823	264.0000
27.5916	300.0000
27.6008	314.0000
27.6100	292.0000
27.6192	257.0000
27.6284	315.0000
27.6377	284.0000
27.6469	272.0000
27.6561	273.0000
27.6653	302.0000
27.6746	285.0000
27.6838	289.0000
27.6930	264.0000
27.7022	299.0000
27.7115	312.0000
27.7207	278.0000
27.7299	302.0000
27.7391	311.0000
27.7483	301.0000
27.7576	263.0000
27.7668	300.0000
27.7760	311.0000
27.7852	290.0000
27.7945	269.0000
27.8037	314.0000
27.8129	315.0000
27.8221	312.0000
27.8313	294.0000
27.8406	340.0000
27.8498	278.0000
27.8590	290.0000
27.8682	314.0000
27.8775	246.0000
27.8867	306.0000
27.8959	294.0000
27.9051	292.0000
27.9144	273.0000
27.9236	259.0000
27.9328	299.0000
27.9420	334.0000
27.9512	310.0000
27.9605	282.0000
27.9697	284.0000
27.9789	308.0000
27.9881	270.0000
27.9974	288.0000
28.0066	275.0000
28.0158	271.0000
28.0250	295.0000
28.0342	301.0000
28.0435	285.0000
28.0527	297.0000
28.0619	282.0000
28.0711	303.0000
28.0804	303.0000
28.0896	299.0000
28.0988	272.0000
28.1080	308.0000
28.1172	289.0000
28.1265	285.0000
28.1357	299.0000
28.1449	283.0000
28.1541	308.0000
28.1634	305.0000
28.1726	276.0000
28.1818	320.0000
28.1910	287.0000
28.2003	273.0000
28.2095	265.0000
28.2187	266.0000
28.2279	316.0000
28.2371	296.0000
28.2464	294.0000
28.2556	287.0000
28.2648	280.0000
28.2740	290.0000
28.2833	302.0000
28.2925	290.0000
28.3017	305.0000
28.3109	301.0000
28.3201	288.0000
28.3294	298.0000
28.3386	294.0000
28.3478	297.0000
28.3570	301.0000
28.3663	295.0000
28.3755	274.0000
28.3847	315.0000
28.3939	318.0000
28.4032	309.0000
28.4124	295.0000
28.4216	283.0000
28.4308	275.0000
28.4400	299.0000
28.4493	281.0000
28.4585	299.0000
28.4677	317.0000
28.4769	278.0000
28.4862	285.0000
28.4954	310.0000
28.5046	318.0000
28.5138	297.0000
28.5230	306.0000
28.5323	321.0000
28.5415	312.0000
28.5507	278.0000
28.5599	313.0000
28.5692	296.0000
28.5784	272.0000
28.5876	293.0000
28.5968	272.0000
28.6061	321.0000
28.6153	278.0000
28.6245	296.0000
28.6337	274.0000
28.6429	323.0000
28.6522	302.0000
28.6614	329.0000
28.6706	291.0000
28.6798	268.0000
28.6891	308.0000
28.6983	323.0000
28.7075	296.0000
28.7167	254.0000
28.7259	293.0000
28.7352	295.0000
28.7444	278.0000
28.7536	301.0000
28.7628	325.0000
28.7721	299.0000
28.7813	298.0000
28.7905	290.0000
28.7997	283.0000
28.8089	312.0000
28.8182	276.0000
28.8274	298.0000
28.8366	275.0000
28.8458	316.0000
28.8551	286.0000
28.8643	274.0000
28.8735	287.0000
28.8827	304.0000
28.8920	291.0000
28.9012	326.0000
28.9104	328.0000
28.9196	295.0000
28.9288	298.0000
28.9381	289.0000
28.9473	276.0000
28.9565	280.0000
28.9657	268.0000
28.9750	303.0000
28.9842	264.0000
28.9934	298.0000
29.0026	324.0000
29.0118	287.0000
29.0211	292.0000
29.0303	289.0000
29.0395	285.0000
29.0487	298.0000
29.0580	291.0000
29.0672	301.0000
29.0764	318.0000
29.0856	294.0000
29.0949	281.0000
29.1041	283.0000
29.1133	299.0000
29.1225	311.0000
29.1317	288.0000
29.1410	305.0000
29.1502	298.0000
29.1594	310.0000
29.1686	284.0000
29.1779	318.0000
29.1871	300.0000
29.1963	302.0000
29.2055	321.0000
29.2147	323.0000
29.2240	289.0000
29.2332	292.0000
29.2424	291.0000
29.2516	311.0000
29.2609	294.0000
29.2701	291.0000
29.2793	316.0000
29.2885	281.0000
29.2977	314.0000
29.3070	298.0000
29.3162	312.0000
29.3254	287.0000
29.3346	322.0000
29.3439	323.0000
29.3531	280.0000
29.3623	275.0000
29.3715	299.0000
29.3808	274.0000
29.3900	308.0000
29.3992	281.0000
29.4084	291.0000
29.4176	283.0000
29.4269	298.0000
29.4361	290.0000
29.4453	293.0000
29.4545	268.0000
29.4638	303.0000
29.4730	289.0000
29.4822	297.0000
29.4914	296.0000
29.5006	298.0000
29.5099	287.0000
29.5191	268.0000
29.5283	306.0000
29.5375	288.0000
29.5468	307.0000
29.5560	307.0000
29.5652	338.0000
29.5744	288.0000
29.5837	292.0000
29.5929	283.0000
29.6021	321.0000
29.6113	281.0000
29.6205	262.0000
29.6298	303.0000
29.6390	310.0000
29.6482	311.0000
29.6574	324.0000
29.6667	313.0000
29.6759	307.0000
29.6851	280.0000
29.6943	287.0000
29.7035	332.0000
29.7128	288.0000
29.7220	266.0000
29.7312	301.0000
29.7404	317.0000
29.7497	293.0000
29.7589	310.0000
29.7681	281.0000
29.7773	290.0000
29.7866	310.0000
29.7958	287.0000
29.8050	272.0000
29.8142	296.0000
29.8234	284.0000
29.8327	249.0000
29.8419	270.0000
29.8511	289.0000
29.8603	325.0000
29.8696	312.0000
29.8788	341.0000
29.8880	284.0000
29.8972	283.0000
29.9064	298.0000
29.9157	273.0000
29.9249	283.0000
29.9341	293.0000
29.9433	260.0000
29.9526	292.0000
29.9618	303.0000
29.9710	315.0000
29.9802	261.0000
29.9894	288.0000
29.9987	302.0000
30.0079	302.0000
30.0171	305.0000
30.0263	259.0000
30.0356	289.0000
30.0448	286.0000
30.0540	279.0000
30.0632	311.0000
30.0725	308.0000
30.0817	259.0000
30.0909	282.0000
30.1001	283.0000
30.1093	314.0000
30.1186	313.0000
30.1278	267.0000
30.1370	306.0000
30.1462	298.0000
30.1555	295.0000
30.1647	336.0000
30.1739	306.0000
30.1831	289.0000
30.1923	280.0000
30.2016	297.0000
30.2108	291.0000
30.2200	240.0000
30.2292	294.0000
30.2385	291.0000
30.2477	285.0000
30.2569	289.0000
30.2661	292.0000
30.2754	281.0000
30.2846	285.0000
30.2938	313.0000
30.3030	272.0000
30.3122	305.0000
30.3215	299.0000
30.3307	296.0000
30.3399	300.0000
30.3491	291.0000
30.3584	299.0000
30.3676	322.0000
30.3768	309.0000
30.3860	294.0000
30.3952	269.0000
30.4045	296.0000
30.4137	280.0000
30.4229	318.0000
30.4321	282.0000
30.4414	308.0000
30.4506	290.0000
30.4598	257.0000
30.4690	268.0000
30.4782	320.0000
30.4875	306.0000
30.4967	282.0000
30.5059	306.0000
30.5151	323.0000
30.5244	293.0000
30.5336	331.0000
30.5428	295.0000
30.5520	275.0000
30.5613	290.0000
30.5705	295.0000
30.5797	282.0000
30.5889	283.0000
30.5981	310.0000
30.6074	296.0000
30.6166	301.0000
30.6258	270.0000
30.6350	297.0000
30.6443	288.0000
30.6535	297.0000
30.6627	290.0000
30.6719	268.0000
30.6811	309.0000
30.6904	274.0000
30.6996	276.0000
30.7088	314.0000
30.7180	286.0000
30.7273	310.0000
30.7365	321.0000
30.7457	273.0000
30.7549	311.0000
30.7642	266.0000
30.7734	278.0000
30.7826	322.0000
30.7918	254.0000
30.8010	304.0000
30.8103	289.0000
30.8195	303.0000
30.8287	288.0000
30.8379	285.0000
30.8472	267.0000
30.8564	306.0000
30.8656	305.0000
30.8748	269.0000
30.8840	308.0000
30.8933	263.0000
30.9025	288.0000
30.9117	283.0000
30.9209	285.0000
30.9302	277.0000
30.9394	277.0000
30.9486	279.0000
30.9578	302.0000
30.9671	329.0000
30.9763	292.0000
30.9855	303.0000
30.9947	283.0000
31.0039	308.0000
31.0132	296.0000
31.0224	255.0000
31.0316	301.0000
31.0408	319.0000
31.0501	272.0000
31.0593	303.0000
31.0685	288.0000
31.0777	311.0000
31.0869	279.0000
31.0962	297.0000
31.1054	240.0000
31.1146	298.0000
31.1238	275.0000
31.1331	324.0000
31.1423	273.0000
31.1515	271.0000
31.1607	307.0000
31.1699	299.0000
31.1792	337.0000
31.1884	276.0000
31.1976	319.0000
31.2068	305.0000
31.2161	271.0000
31.2253	312.0000
31.2345	292.0000
31.2437	313.0000
31.2530	302.0000
31.2622	292.0000
31.2714	298.0000
31.2806	282.0000
31.2898	286.0000
31.2991	273.0000
31.3083	276.0000
31.3175	323.0000
31.3267	308.0000
31.3360	278.0000
31.3452	309.0000
31.3544	337.0000
31.3636	304.0000
31.3728	299.0000
31.3821	282.0000
31.3913	269.0000
31.4005	309.0000
31.4097	278.0000
31.4190	285.0000
31.4282	283.0000
31.4374	320.0000
31.4466	293.0000
31.4559	275.0000
31.4651	302.0000
31.4743	290.0000
31.4835	323.0000
31.4927	302.0000
31.5020	306.0000
31.5112	291.0000
31.5204	294.0000
31.5296	301.0000
31.5389	303.0000
31.5481	285.0000
31.5573	290.0000
31.5665	297.0000
31.5757	283.0000
31.5850	319.0000
31.5942	289.0000
31.6034	290.0000
31.6126	289.0000
31.6219	291.0000
31.6311	282.0000
31.6403	289.0000
31.6495	304.0000
31.6587	309.0000
31.6680	269.0000
31.6772	287.0000
31.6864	284.0000
31.6956	274.0000
31.7049	264.0000
31.7141	294.0000
31.7233	299.0000
31.7325	280.0000
31.7418	310.0000
31.7510	299.0000
31.7602	282.0000
31.7694	311.0000
31.7786	285.0000
31.7879	277.0000
31.7971	303.0000
31.8063	287.0000
31.8155	300.0000
31.8248	263.0000
31.8340	279.0000
31.8432	313.0000
31.8524	285.0000
31.8616	308.0000
31.8709	269.0000
31.8801	280.0000
31.8893	306.0000
31.8985	285.0000
31.9078	309.0000
31.9170	296.0000
31.9262	261.0000
31.9354	320.0000
31.9447	287.0000
31.9539	284.0000
31.9631	304.0000
31.9723	313.0000
31.9815	286.0000
31.9908	287.0000
32.0000	271.0000
32.0092	290.0000
32.0184	272.0000
32.0277	256.0000
32.0369	298.0000
32.0461	295.0000
32.0553	299.0000
32.0645	289.0000
32.0738	317.0000
32.0830	314.0000
32.0922	266.0000
32.1014	268.0000
32.1107	276.0000
32.1199	294.0000
32.1291	269.0000
32.1383	323.0000
32.1476	303.0000
32.1568	292.0000
32.1660	311.0000
32.1752	259.0000
32.1844	277.0000
32.1937	294.0000
32.2029	286.0000
32.2121	285.0000
32.2213	289.0000
32.2306	325.0000
32.2398	302.0000
32.2490	267.0000
32.2582	284.0000
32.2674	281.0000
32.2767	294.0000
32.2859	315.0000
32.2951	303.0000
32.3043	274.0000
32.3136	272.0000
32.3228	303.0000
32.3320	298.0000
32.3412	288.0000
32.3504	287.0000
32.3597	306.0000
32.3689	298.0000
32.3781	258.0000
32.3873	275.0000
32.3966	299.0000
32.4058	267.0000
32.4150	280.0000
32.4242	281.0000
32.4335	307.0000
32.4427	292.0000
32.4519	283.0000
32.4611	287.0000
32.4703	294.0000
32.4796	289.0000
32.4888	276.0000
32.4980	292.0000
32.5072	282.0000
32.5165	295.0000
32.5257	285.0000
32.5349	289.0000
32.5441	292.0000
32.5533	259.0000
32.5626	261.0000
32.5718	310.0000
32.5810	265.0000
32.5902	278.0000
32.5995	308.0000
32.6087	315.0000
32.6179	311.0000
32.6271	267.0000
32.6364	339.0000
32.6456	303.0000
32.6548	313.0000
32.6640	319.0000
32.6732	317.0000
32.6825	286.0000
32.6917	289.0000
32.7009	305.0000
32.7101	273.0000
32.7194	298.0000
32.7286	316.0000
32.7378	303.0000
32.7470	309.0000
32.7562	301.0000
32.7655	303.0000
32.7747	308.0000
32.7839	331.0000
32.7931	257.0000
32.8024	314.0000
32.8116	277.0000
32.8208	314.0000
32.8300	310.0000
32.8392	320.0000
32.8485	296.0000
32.8577	286.0000
32.8669	296.0000
32.8761	278.0000
32.8854	283.0000
32.8946	294.0000
32.9038	297.0000
32.9130	266.0000
32.9223	261.0000
32.9315	309.0000
32.9407	293.0000
32.9499	270.0000
32.9591	291.0000
32.9684	296.0000
32.9776	273.0000
32.9868	289.0000
32.9960	262.0000
33.0053	272.0000
33.0145	294.0000
33.0237	281.0000
33.0329	310.0000
33.0421	288.0000
33.0514	313.0000
33.0606	294.0000
33.0698	335.0000
33.0790	271.0000
33.0883	301.0000
33.0975	339.0000
33.1067	300.0000
33.1159	294.0000
33.1252	275.0000
33.1344	281.0000
33.1436	298.0000
33.1528	293.0000
33.1620	297.0000
33.1713	294.0000
33.1805	315.0000
33.1897	299.0000
33.1989	260.0000
33.2082	290.0000
33.2174	279.0000
33.2266	288.0000
33.2358	291.0000
33.2450	299.0000
33.2543	302.0000
33.2635	289.0000
33.2727	296.0000
33.2819	291.0000
33.2912	287.0000
33.3004	300.0000
33.3096	304.0000
33.3188	264.0000
33.3281	266.0000
33.3373	273.0000
33.3465	285.0000
33.3557	281.0000
33.3649	272.0000
33.3742	299.0000
33.3834	295.0000
33.3926	282.0000
33.4018	296.0000
33.4111	291.0000
33.4203	264.0000
33.4295	296.0000
33.4387	323.0000
33.4479	305.0000
33.4572	278.0000
33.4664	283.0000
33.4756	279.0000
33.4848	282.0000
33.4941	292.0000
33.5033	267.0000
33.5125	304.0000
33.5217	277.0000
33.5309	293.0000
33.5402	281.0000
33.5494	301.0000
33.5586	319.0000
33.5678	293.0000
33.5771	313.0000
33.5863	287.0000
33.5955	276.0000
33.6047	297.0000
33.6140	304.0000
33.6232	273.0000
33.6324	309.0000
33.6416	306.0000
33.6508	279.0000
33.6601	291.0000
33.6693	269.0000
33.6785	305.0000
33.6877	308.0000
33.6970	301.0000
33.7062	276.0000
33.7154	274.0000
33.7246	277.0000
33.7338	262.0000
33.7431	265.0000
33.7523	318.0000
33.7615	281.0000
33.7707	293.0000
33.7800	291.0000
33.7892	294.0000
33.7984	304.0000
33.8076	274.0000
33.8169	289.0000
33.8261	308.0000
33.8353	266.0000
33.8445	271.0000
33.8537	306.0000
33.8630	308.0000
33.8722	271.0000
33.8814	290.0000
33.8906	272.0000
33.8999	279.0000
33.9091	302.0000
33.9183	322.0000
33.9275	274.0000
33.9367	284.0000
33.9460	283.0000
33.9552	294.0000
33.9644	284.0000
33.9736	259.0000
33.9829	266.0000
33.9921	320.0000
34.0013	282.0000
34.0105	298.0000
34.0197	267.0000
34.0290	256.0000
34.0382	298.0000
34.0474	301.0000
34.0566	285.0000
34.0659	265.0000
34.0751	290.0000
34.0843	275.0000
34.0935	291.0000
34.1028	301.0000
34.1120	306.0000
34.1212	289.0000
34.1304	275.0000
34.1396	286.0000
34.1489	272.0000
34.1581	266.0000
34.1673	304.0000
34.1765	281.0000
34.1858	287.0000
34.1950	255.0000
34.2042	275.0000
34.2134	273.0000
34.2226	279.0000
34.2319	282.0000
34.2411	274.0000
34.2503	293.0000
34.2595	306.0000
34.2688	280.0000
34.2780	271.0000
34.2872	240.0000
34.2964	278.0000
34.3057	286.0000
34.3149	275.0000
34.3241	249.0000
34.3333	264.0000
34.3425	268.0000
34.3518	255.0000
34.3610	273.0000
34.3702	265.0000
34.3794	286.0000
34.3887	254.0000
34.3979	266.0000
34.4071	282.0000
34.4163	276.0000
34.4255	302.0000
34.4348	266.0000
34.4440	255.0000
34.4532	275.0000
34.4624	285.0000
34.4717	264.0000
34.4809	278.0000
34.4901	292.0000
34.4993	278.0000
34.5086	317.0000
34.5178	267.0000
34.5270	248.0000
34.5362	270.0000
34.5454	258.0000
34.5547	269.0000
34.5639	234.0000
34.5731	279.0000
34.5823	264.0000
34.5916	284.0000
34.6008	288.0000
34.6100	258.0000
34.6192	242.0000
34.6284	258.0000
34.6377	290.0000
34.6469	270.0000
34.6561	263.0000
34.6653	261.0000
34.6746	267.0000
34.6838	281.0000
34.6930	250.0000
34.7022	277.0000
34.7114	267.0000
34.7207	248.0000
34.7299	261.0000
34.7391	258.0000
34.7483	267.0000
34.7576	260.0000
34.7668	246.0000
34.7760	263.0000
34.7852	251.0000
34.7945	259.0000
34.8037	273.0000
34.8129	275.0000
34.8221	282.0000
34.8313	257.0000
34.8406	233.0000
34.8498	241.0000
34.8590	282.0000
34.8682	241.0000
34.8775	277.0000
34.8867	281.0000
34.8959	261.0000
34.9051	259.0000
34.9143	243.0000
34.9236	240.0000
34.9328	267.0000
34.9420	276.0000
34.9512	270.0000
34.9605	243.0000
34.9697	277.0000
34.9789	271.0000
34.9881	288.0000
34.9974	253.0000
35.0066	249.0000
35.0158	236.0000
35.0250	262.0000
35.0342	230.0000
35.0435	298.0000
35.0527	273.0000
35.0619	284.0000
35.0711	280.0000
35.0804	234.0000
35.0896	277.0000
35.0988	232.0000
35.1080	250.0000
35.1172	251.0000
35.1265	222.0000
35.1357	260.0000
35.1449	235.0000
35.1541	242.0000
35.1634	238.0000
35.1726	234.0000
35.1818	233.0000
35.1910	261.0000
35.2002	241.0000
35.2095	260.0000
35.2187	267.0000
35.2279	252.0000
35.2371	258.0000
35.2464	215.0000
35.2556	230.0000
35.2648	240.0000
35.2740	248.0000
35.2833	240.0000
35.2925	253.0000
35.3017	251.0000
35.3109	253.0000
35.3201	257.0000
35.3294	241.0000
35.3386	226.0000
35.3478	241.0000
35.3570	233.0000
35.3663	248.0000
35.3755	260.0000
35.3847	238.0000
35.3939	241.0000
35.4031	246.0000
35.4124	253.0000
35.4216	249.0000
35.4308	232.0000
35.4400	253.0000
35.4493	208.0000
35.4585	236.0000
35.4677	252.0000
35.4769	260.0000
35.4862	247.0000
35.4954	245.0000
35.5046	236.0000
35.5138	195.0000
35.5230	214.0000
35.5323	210.0000
35.5415	257.0000
35.5507	233.0000
35.5599	229.0000
35.5692	219.0000
35.5784	238.0000
35.5876	227.0000
35.5968	230.0000
35.6060	215.0000
35.6153	225.0000
35.6245	231.0000
35.6337	227.0000
35.6429	228.0000
35.6522	248.0000
35.6614	219.0000
35.6706	219.0000
35.6798	208.0000
35.6891	226.0000
35.6983	226.0000
35.7075	242.0000
35.7167	250.0000
35.7259	217.0000
35.7352	238.0000
35.7444	228.0000
35.7536	243.0000
35.7628	226.0000
35.7721	230.0000
35.7813	194.0000
35.7905	209.0000
35.7997	228.0000
35.8089	217.0000
35.8182	219.0000
35.8274	252.0000
35.8366	204.0000
35.8458	229.0000
35.8551	214.0000
35.8643	236.0000
35.8735	219.0000
35.8827	207.0000
35.8919	205.0000
35.9012	202.0000
35.9104	235.0000
35.9196	240.0000
35.9288	219.0000
35.9381	205.0000
35.9473	216.0000
35.9565	205.0000
35.9657	225.0000
35.9750	222.0000
35.9842	218.0000
35.9934	223.0000
36.0026	224.0000
36.0118	219.0000
36.0211	202.0000
36.0303	211.0000
36.0395	210.0000
36.0487	221.0000
36.0580	222.0000
36.0672	204.0000
36.0764	243.0000
36.0856	202.0000
36.0948	196.0000
36.1041	216.0000
36.1133	232.0000
36.1225	193.0000
36.1317	169.0000
36.1410	255.0000
36.1502	185.0000
36.1594	205.0000
36.1686	189.0000
36.1779	170.0000
36.1871	214.0000
36.1963	192.0000
36.2055	196.0000
36.2147	221.0000
36.2240	231.0000
36.2332	220.0000
36.2424	204.0000
36.2516	200.0000
36.2609	189.0000
36.2701	200.0000
36.2793	203.0000
36.2885	212.0000
36.2977	194.0000
36.3070	209.0000
36.3162	200.0000
36.3254	189.0000
36.3346	196.0000
36.3439	175.0000
36.3531	180.0000
36.3623	197.0000
36.3715	190.0000
36.3807	216.0000
36.3900	172.0000
36.3992	210.0000
36.4084	221.0000
36.4176	191.0000
36.4269	218.0000
36.4361	200.0000
36.4453	189.0000
36.4545	208.0000
36.4638	178.0000
36.4730	174.0000
36.4822	182.0000
36.4914	202.0000
36.5006	193.0000
36.5099	200.0000
36.5191	210.0000
36.5283	192.0000
36.5375	195.0000
36.5468	183.0000
36.5560	188.0000
36.5652	169.0000
36.5744	189.0000
36.5836	183.0000
36.5929	182.0000
36.6021	185.0000
36.6113	194.0000
36.6205	211.0000
36.6298	168.0000
36.6390	178.0000
36.6482	180.0000
36.6574	215.0000
36.6667	183.0000
36.6759	182.0000
36.6851	203.0000
36.6943	200.0000
36.7035	173.0000
36.7128	161.0000
36.7220	183.0000
36.7312	196.0000
36.7404	209.0000
36.7497	215.0000
36.7589	174.0000
36.7681	177.0000
36.7773	179.0000
36.7865	173.0000
36.7958	182.0000
36.8050	182.0000
36.8142	188.0000
36.8234	165.0000
36.8327	201.0000
36.8419	183.0000
36.8511	199.0000
36.8603	168.0000
36.8696	187.0000
36.8788	186.0000
36.8880	199.0000
36.8972	169.0000
36.9064	203.0000
36.9157	151.0000
36.9249	178.0000
36.9341	179.0000
36.9433	198.0000
36.9526	208.0000
36.9618	200.0000
36.9710	175.0000
36.9802	155.0000
36.9894	187.0000
36.9987	170.0000
37.0079	180.0000
37.0171	188.0000
37.0263	180.0000
37.0356	158.0000
37.0448	174.0000
37.0540	154.0000
37.0632	165.0000
37.0724	181.0000
37.0817	183.0000
37.0909	167.0000
37.1001	187.0000
37.1093	158.0000
37.1186	169.0000
37.1278	175.0000
37.1370	171.0000
37.1462	163.0000
37.1555	193.0000
37.1647	190.0000
37.1739	186.0000
37.1831	184.0000
37.1923	183.0000
37.2016	197.0000
37.2108	175.0000
37.2200	172.0000
37.2292	179.0000
37.2385	173.0000
37.2477	173.0000
37.2569	183.0000
37.2661	177.0000
37.2753	188.0000
37.2846	195.0000
37.2938	186.0000
37.3030	197.0000
37.3122	218.0000
37.3215	258.0000
37.3307	340.0000
37.3399	473.0000
37.3491	513.0000
37.3584	566.0000
37.3676	451.0000
37.3768	303.0000
37.3860	237.0000
37.3952	202.0000
37.4045	199.0000
37.4137	183.0000
37.4229	189.0000
37.4321	175.0000
37.4414	176.0000
37.4506	150.0000
37.4598	183.0000
37.4690	143.0000
37.4782	173.0000
37.4875	178.0000
37.4967	172.0000
37.5059	170.0000
37.5151	203.0000
37.5244	168.0000
37.5336	202.0000
37.5428	189.0000
37.5520	212.0000
37.5612	259.0000
37.5705	310.0000
37.5797	338.0000
37.5889	374.0000
37.5981	301.0000
37.6074	225.0000
37.6166	202.0000
37.6258	179.0000
37.6350	163.0000
37.6443	167.0000
37.6535	186.0000
37.6627	178.0000
37.6719	165.0000
37.6811	168.0000
37.6904	157.0000
37.6996	189.0000
37.7088	185.0000
37.7180	148.0000
37.7273	179.0000
37.7365	159.0000
37.7457	158.0000
37.7549	180.0000
37.7641	162.0000
37.7734	176.0000
37.7826	184.0000
37.7918	177.0000
37.8010	152.0000
37.8103	162.0000
37.8195	160.0000
37.8287	165.0000
37.8379	170.0000
37.8472	168.0000
37.8564	156.0000
37.8656	140.0000
37.8748	160.0000
37.8840	188.0000
37.8933	168.0000
37.9025	163.0000
37.9117	142.0000
37.9209	155.0000
37.9302	142.0000
37.9394	180.0000
37.9486	177.0000
37.9578	139.0000
37.9670	175.0000
37.9763	147.0000
37.9855	181.0000
37.9947	143.0000
38.0039	178.0000
38.0132	161.0000
38.0224	175.0000
38.0316	150.0000
38.0408	161.0000
38.0501	164.0000
38.0593	162.0000
38.0685	125.0000
38.0777	156.0000
38.0869	165.0000
38.0962	150.0000
38.1054	151.0000
38.1146	170.0000
38.1238	133.0000
38.1331	161.0000
38.1423	145.0000
38.1515	176.0000
38.1607	162.0000
38.1699	169.0000
38.1792	189.0000
38.1884	152.0000
38.1976	177.0000
38.2068	170.0000
38.2161	138.0000
38.2253	140.0000
38.2345	157.0000
38.2437	164.0000
38.2529	168.0000
38.2622	158.0000
38.2714	133.0000
38.2806	167.0000
38.2898	160.0000
38.2991	140.0000
38.3083	181.0000
38.3175	161.0000
38.3267	160.0000
38.3360	171.0000
38.3452	163.0000
38.3544	155.0000
38.3636	167.0000
38.3728	160.0000
38.3821	145.0000
38.3913	152.0000
38.4005	153.0000
38.4097	164.0000
38.4190	165.0000
38.4282	151.0000
38.4374	166.0000
38.4466	189.0000
38.4558	152.0000
38.4651	169.0000
38.4743	161.0000
38.4835	149.0000
38.4927	160.0000
38.5020	133.0000
38.5112	167.0000
38.5204	156.0000
38.5296	179.0000
38.5389	159.0000
38.5481	138.0000
38.5573	154.0000
38.5665	167.0000
38.5757	110.0000
38.5850	165.0000
38.5942	164.0000
38.6034	164.0000
38.6126	143.0000
38.6219	144.0000
38.6311	153.0000
38.6403	131.0000
38.6495	153.0000
38.6587	153.0000
38.6680	161.0000
38.6772	151.0000
38.6864	172.0000
38.6956	181.0000
38.7049	159.0000
38.7141	162.0000
38.7233	165.0000
38.7325	163.0000
38.7417	171.0000
38.7510	141.0000
38.7602	159.0000
38.7694	171.0000
38.7786	169.0000
38.7879	167.0000
38.7971	163.0000
38.8063	148.0000
38.8155	145.0000
38.8248	149.0000
38.8340	144.0000
38.8432	175.0000
38.8524	170.0000
38.8616	157.0000
38.8709	157.0000
38.8801	149.0000
38.8893	171.0000
38.8985	140.0000
38.9078	144.0000
38.9170	160.0000
38.9262	153.0000
38.9354	168.0000
38.9446	153.0000
38.9539	150.0000
38.9631	154.0000
38.9723	161.0000
38.9815	142.0000
38.9908	165.0000
39.0000	145.0000
39.0092	137.0000
39.0184	150.0000
39.0277	149.0000
39.0369	169.0000
39.0461	160.0000
39.0553	152.0000
39.0645	163.0000
39.0738	150.0000
39.0830	162.0000
39.0922	144.0000
39.1014	154.0000
39.1107	178.0000
39.1199	166.0000
39.1291	144.0000
39.1383	143.0000
39.1475	146.0000
39.1568	147.0000
39.1660	151.0000
39.1752	165.0000
39.1844	169.0000
39.1937	138.0000
39.2029	168.0000
39.2121	140.0000
39.2213	161.0000
39.2306	161.0000
39.2398	133.0000
39.2490	132.0000
39.2582	155.0000
39.2674	144.0000
39.2767	156.0000
39.2859	143.0000
39.2951	130.0000
39.3043	148.0000
39.3136	148.0000
39.3228	141.0000
39.3320	140.0000
39.3412	140.0000
39.3504	126.0000
39.3597	148.0000
39.3689	147.0000
39.3781	157.0000
39.3873	158.0000
39.3966	168.0000
39.4058	168.0000
39.4150	163.0000
39.4242	168.0000
39.4334	165.0000
39.4427	154.0000
39.4519	155.0000
39.4611	145.0000
39.4703	136.0000
39.4796	178.0000
39.4888	147.0000
39.4980	141.0000
39.5072	157.0000
39.5165	178.0000
39.5257	135.0000
39.5349	140.0000
39.5441	146.0000
39.5533	161.0000
39.5626	159.0000
39.5718	155.0000
39.5810	152.0000
39.5902	167.0000
39.5995	159.0000
39.6087	166.0000
39.6179	138.0000
39.6271	148.0000
39.6363	169.0000
39.6456	175.0000
39.6548	158.0000
39.6640	167.0000
39.6732	172.0000
39.6825	159.0000
39.6917	146.0000
39.7009	169.0000
39.7101	180.0000
39.7194	151.0000
39.7286	144.0000
39.7378	148.0000
39.7470	137.0000
39.7562	149.0000
39.7655	124.0000
39.7747	141.0000
39.7839	148.0000
39.7931	153.0000
39.8024	133.0000
39.8116	148.0000
39.8208	157.0000
39.8300	152.0000
39.8392	136.0000
39.8485	137.0000
39.8577	141.0000
39.8669	148.0000
39.8761	145.0000
39.8854	160.0000
39.8946	136.0000
39.9038	150.0000
39.9130	155.0000
39.9222	143.0000
39.9315	160.0000
39.9407	138.0000
39.9499	146.0000
39.9591	142.0000
39.9684	155.0000
39.9776	136.0000
39.9868	156.0000
39.9960	146.0000
40.0053	140.0000
40.0145	148.0000
40.0237	162.0000
40.0329	161.0000
40.0421	151.0000
40.0514	142.0000
40.0606	133.0000
40.0698	150.0000
40.0790	157.0000
40.0883	145.0000
40.0975	143.0000
40.1067	168.0000
40.1159	160.0000
40.1251	140.0000
40.1344	134.0000
40.1436	127.0000
40.1528	144.0000
40.1620	143.0000
40.1713	154.0000
40.1805	149.0000
40.1897	152.0000
40.1989	159.0000
40.2082	126.0000
40.2174	145.0000
40.2266	172.0000
40.2358	154.0000
40.2450	127.0000
40.2543	140.0000
40.2635	151.0000
40.2727	153.0000
40.2819	149.0000
40.2912	146.0000
40.3004	134.0000
40.3096	136.0000
40.3188	157.0000
40.3280	156.0000
40.3373	156.0000
40.3465	156.0000
40.3557	183.0000
40.3649	141.0000
40.3742	141.0000
40.3834	149.0000
40.3926	129.0000
40.4018	146.0000
40.4111	153.0000
40.4203	139.0000
40.4295	178.0000
40.4387	168.0000
40.4479	145.0000
40.4572	157.0000
40.4664	121.0000
40.4756	141.0000
40.4848	154.0000
40.4941	150.0000
40.5033	140.0000
40.5125	146.0000
40.5217	146.0000
40.5309	151.0000
40.5402	151.0000
40.5494	150.0000
40.5586	150.0000
40.5678	159.0000
40.5771	145.0000
40.5863	149.0000
40.5955	153.0000
40.6047	132.0000
40.6139	130.0000
40.6232	144.0000
40.6324	148.0000
40.6416	130.0000
40.6508	159.0000
40.6601	157.0000
40.6693	146.0000
40.6785	160.0000
40.6877	145.0000
40.6970	155.0000
40.7062	133.0000
40.7154	165.0000
40.7246	170.0000
40.7338	139.0000
40.7431	151.0000
40.7523	152.0000
40.7615	160.0000
40.7707	153.0000
40.7800	134.0000
40.7892	151.0000
40.7984	147.0000
40.8076	138.0000
40.8168	147.0000
40.8261	148.0000
40.8353	154.0000
40.8445	141.0000
40.8537	143.0000
40.8630	132.0000
40.8722	150.0000
40.8814	157.0000
40.8906	172.0000
40.8999	143.0000
40.9091	144.0000
40.9183	149.0000
40.9275	136.0000
40.9367	123.0000
40.9460	135.0000
40.9552	152.0000
40.9644	145.0000
40.9736	163.0000
40.9829	143.0000
40.9921	154.0000
41.0013	154.0000
41.0105	145.0000
41.0197	150.0000
41.0290	140.0000
41.0382	127.0000
41.0474	160.0000
41.0566	163.0000
41.0659	138.0000
41.0751	136.0000
41.0843	152.0000
41.0935	146.0000
41.1027	155.0000
41.1120	161.0000
41.1212	135.0000
41.1304	123.0000
41.1396	155.0000
41.1489	128.0000
41.1581	133.0000
41.1673	122.0000
41.1765	151.0000
41.1858	153.0000
41.1950	168.0000
41.2042	143.0000
41.2134	133.0000
41.2226	138.0000
41.2319	146.0000
41.2411	139.0000
41.2503	153.0000
41.2595	133.0000
41.2688	140.0000
41.2780	131.0000
41.2872	143.0000
41.2964	154.0000
41.3056	147.0000
41.3149	145.0000
41.3241	138.0000
41.3333	161.0000
41.3425	157.0000
41.3518	141.0000
41.3610	142.0000
41.3702	140.0000
41.3794	144.0000
41.3887	150.0000
41.3979	136.0000
41.4071	145.0000
41.4163	169.0000
41.4255	140.0000
41.4348	150.0000
41.4440	153.0000
41.4532	141.0000
41.4624	139.0000
41.4717	132.0000
41.4809	139.0000
41.4901	119.0000
41.4993	145.0000
41.5085	134.0000
41.5178	130.0000
41.5270	139.0000
41.5362	144.0000
41.5454	134.0000
41.5547	152.0000
41.5639	147.0000
41.5731	146.0000
41.5823	138.0000
41.5915	128.0000
41.6008	142.0000
41.6100	122.0000
41.6192	151.0000
41.6284	162.0000
41.6377	136.0000
41.6469	158.0000
41.6561	156.0000
41.6653	139.0000
41.6746	161.0000
41.6838	159.0000
41.6930	159.0000
41.7022	149.0000
41.7114	160.0000
41.7207	147.0000
41.7299	157.0000
41.7391	158.0000
41.7483	149.0000
41.7576	148.0000
41.7668	132.0000
41.7760	150.0000
41.7852	164.0000
41.7944	150.0000
41.8037	133.0000
41.8129	138.0000
41.8221	134.0000
41.8313	164.0000
41.8406	135.0000
41.8498	136.0000
41.8590	165.0000
41.8682	115.0000
41.8775	145.0000
41.8867	135.0000
41.8959	137.0000
41.9051	156.0000
41.9143	143.0000
41.9236	142.0000
41.9328	136.0000
41.9420	158.0000
41.9512	173.0000
41.9605	145.0000
41.9697	149.0000
41.9789	144.0000
41.9881	144.0000
41.9973	142.0000
42.0066	145.0000
42.0158	136.0000
42.0250	146.0000
42.0342	139.0000
42.0435	158.0000
42.0527	147.0000
42.0619	146.0000
42.0711	147.0000
42.0804	146.0000
42.0896	146.0000
42.0988	170.0000
42.1080	131.0000
42.1172	158.0000
42.1265	131.0000
42.1357	165.0000
42.1449	138.0000
42.1541	164.0000
42.1634	126.0000
42.1726	143.0000
42.1818	152.0000
42.1910	153.0000
42.2002	142.0000
42.2095	149.0000
42.2187	134.0000
42.2279	138.0000
42.2371	147.0000
42.2464	167.0000
42.2556	150.0000
42.2648	131.0000
42.2740	154.0000
42.2832	135.0000
42.2925	141.0000
42.3017	174.0000
42.3109	126.0000
42.3201	154.0000
42.3294	136.0000
42.3386	139.0000
42.3478	148.0000
42.3570	168.0000
42.3663	156.0000
42.3755	146.0000
42.3847	164.0000
42.3939	127.0000
42.4031	132.0000
42.4124	162.0000
42.4216	169.0000
42.4308	158.0000
42.4400	138.0000
42.4493	137.0000
42.4585	123.0000
42.4677	154.0000
42.4769	152.0000
42.4861	135.0000
42.4954	156.0000
42.5046	155.0000
42.5138	137.0000
42.5230	136.0000
42.5323	144.0000
42.5415	161.0000
42.5507	136.0000
42.5599	160.0000
42.5692	156.0000
42.5784	136.0000
42.5876	152.0000
42.5968	169.0000
42.6060	147.0000
42.6153	143.0000
42.6245	158.0000
42.6337	148.0000
42.6429	151.0000
42.6522	140.0000
42.6614	154.0000
42.6706	143.0000
42.6798	140.0000
42.6890	139.0000
42.6983	166.0000
42.7075	120.0000
42.7167	141.0000
42.7259	136.0000
42.7352	130.0000
42.7444	129.0000
42.7536	149.0000
42.7628	150.0000
42.7720	140.0000
42.7813	135.0000
42.7905	151.0000
42.7997	123.0000
42.8089	154.0000
42.8182	157.0000
42.8274	132.0000
42.8366	142.0000
42.8458	161.0000
42.8551	131.0000
42.8643	141.0000
42.8735	130.0000
42.8827	159.0000
42.8919	142.0000
42.9012	152.0000
42.9104	137.0000
42.9196	153.0000
42.9288	149.0000
42.9381	143.0000
42.9473	150.0000
42.9565	146.0000
42.9657	148.0000
42.9749	164.0000
42.9842	149.0000
42.9934	140.0000
43.0026	142.0000
43.0118	132.0000
43.0211	149.0000
43.0303	154.0000
43.0395	149.0000
43.0487	136.0000
43.0580	156.0000
43.0672	133.0000
43.0764	172.0000
43.0856	129.0000
43.0948	136.0000
43.1041	137.0000
43.1133	154.0000
43.1225	148.0000
43.1317	136.0000
43.1410	162.0000
43.1502	141.0000
43.1594	142.0000
43.1686	132.0000
43.1778	132.0000
43.1871	154.0000
43.1963	143.0000
43.2055	154.0000
43.2147	128.0000
43.2240	146.0000
43.2332	122.0000
43.2424	138.0000
43.2516	137.0000
43.2609	144.0000
43.2701	154.0000
43.2793	127.0000
43.2885	144.0000
43.2977	161.0000
43.3070	150.0000
43.3162	136.0000
43.3254	125.0000
43.3346	145.0000
43.3439	152.0000
43.3531	152.0000
43.3623	148.0000
43.3715	136.0000
43.3807	136.0000
43.3900	130.0000
43.3992	128.0000
43.4084	153.0000
43.4176	130.0000
43.4269	161.0000
43.4361	147.0000
43.4453	159.0000
43.4545	121.0000
43.4637	125.0000
43.4730	122.0000
43.4822	142.0000
43.4914	144.0000
43.5006	121.0000
43.5099	133.0000
43.5191	145.0000
43.5283	139.0000
43.5375	134.0000
43.5468	148.0000
43.5560	147.0000
43.5652	156.0000
43.5744	181.0000
43.5836	147.0000
43.5929	117.0000
43.6021	122.0000
43.6113	157.0000
43.6205	162.0000
43.6298	135.0000
43.6390	157.0000
43.6482	143.0000
43.6574	138.0000
43.6666	144.0000
43.6759	146.0000
43.6851	150.0000
43.6943	131.0000
43.7035	150.0000
43.7128	136.0000
43.7220	145.0000
43.7312	129.0000
43.7404	133.0000
43.7497	134.0000
43.7589	131.0000
43.7681	131.0000
43.7773	154.0000
43.7865	129.0000
43.7958	133.0000
43.8050	128.0000
43.8142	143.0000
43.8234	136.0000
43.8327	135.0000
43.8419	127.0000
43.8511	131.0000
43.8603	145.0000
43.8695	130.0000
43.8788	124.0000
43.8880	152.0000
43.8972	153.0000
43.9064	127.0000
43.9157	129.0000
43.9249	137.0000
43.9341	126.0000
43.9433	139.0000
43.9525	133.0000
43.9618	149.0000
43.9710	119.0000
43.9802	156.0000
43.9894	144.0000
43.9987	144.0000
44.0079	128.0000
44.0171	109.0000
44.0263	138.0000
44.0356	137.0000
44.0448	137.0000
44.0540	137.0000
44.0632	146.0000
44.0724	158.0000
44.0817	139.0000
44.0909	129.0000
44.1001	110.0000
44.1093	120.0000
44.1186	128.0000
44.1278	127.0000
44.1370	124.0000
44.1462	137.0000
44.1554	118.0000
44.1647	141.0000
44.1739	142.0000
44.1831	143.0000
44.1923	151.0000
44.2016	140.0000
44.2108	138.0000
44.2200	133.0000
44.2292	134.0000
44.2385	143.0000
44.2477	141.0000
44.2569	132.0000
44.2661	135.0000
44.2753	115.0000
44.2846	130.0000
44.2938	143.0000
44.3030	131.0000
44.3122	128.0000
44.3215	138.0000
44.3307	112.0000
44.3399	131.0000
44.3491	152.0000
44.3583	145.0000
44.3676	149.0000
44.3768	112.0000
44.3860	134.0000
44.3952	131.0000
44.4045	122.0000
44.4137	156.0000
44.4229	129.0000
44.4321	106.0000
44.4414	122.0000
44.4506	121.0000
44.4598	148.0000
44.4690	152.0000
44.4782	125.0000
44.4875	132.0000
44.4967	168.0000
44.5059	140.0000
44.5151	156.0000
44.5244	128.0000
44.5336	130.0000
44.5428	124.0000
44.5520	127.0000
44.5612	152.0000
44.5705	121.0000
44.5797	119.0000
44.5889	132.0000
44.5981	120.0000
44.6074	148.0000
44.6166	135.0000
44.6258	135.0000
44.6350	135.0000
44.6442	125.0000
44.6535	143.0000
44.6627	141.0000
44.6719	122.0000
44.6811	102.0000
44.6904	131.0000
44.6996	131.0000
44.7088	151.0000
44.7180	151.0000
44.7273	145.0000
44.7365	121.0000
44.7457	136.0000
44.7549	137.0000
44.7641	114.0000
44.7734	129.0000
44.7826	146.0000
44.7918	124.0000
44.8010	136.0000
44.8103	130.0000
44.8195	129.0000
44.8287	134.0000
44.8379	131.0000
44.8471	133.0000
44.8564	137.0000
44.8656	136.0000
44.8748	132.0000
44.8840	141.0000
44.8933	125.0000
44.9025	116.0000
44.9117	133.0000
44.9209	131.0000
44.9302	115.0000
44.9394	138.0000
44.9486	143.0000
44.9578	152.0000
44.9670	134.0000
44.9763	141.0000
44.9855	139.0000
44.9947	147.0000
45.0039	132.0000
45.0132	128.0000
45.0224	130.0000
45.0316	138.0000
45.0408	140.0000
45.0500	132.0000
45.0593	123.0000
45.0685	143.0000
45.0777	116.0000
45.0869	130.0000
45.0962	118.0000
45.1054	137.0000
45.1146	134.0000
45.1238	136.0000
45.1330	101.0000
45.1423	118.0000
45.1515	146.0000
45.1607	125.0000
45.1699	136.0000
45.1792	134.0000
45.1884	129.0000
45.1976	140.0000
45.2068	149.0000
45.2161	122.0000
45.2253	101.0000
45.2345	120.0000
45.2437	141.0000
45.2529	149.0000
45.2622	126.0000
45.2714	118.0000
45.2806	131.0000
45.2898	123.0000
45.2991	133.0000
45.3083	112.0000
45.3175	121.0000
45.3267	141.0000
45.3359	114.0000
45.3452	137.0000
45.3544	133.0000
45.3636	121.0000
45.3728	128.0000
45.3821	123.0000
45.3913	135.0000
45.4005	111.0000
45.4097	128.0000
45.4190	133.0000
45.4282	132.0000
45.4374	130.0000
45.4466	117.0000
45.4558	133.0000
45.4651	124.0000
45.4743	130.0000
45.4835	117.0000
45.4927	122.0000
45.5020	125.0000
45.5112	131.0000
45.5204	118.0000
45.5296	121.0000
45.5388	137.0000
45.5481	143.0000
45.5573	123.0000
45.5665	123.0000
45.5757	115.0000
45.5850	134.0000
45.5942	120.0000
45.6034	108.0000
45.6126	123.0000
45.6219	125.0000
45.6311	121.0000
45.6403	129.0000
45.6495	126.0000
45.6587	124.0000
45.6680	116.0000
45.6772	117.0000
45.6864	114.0000
45.6956	119.0000
45.7049	139.0000
45.7141	136.0000
45.7233	126.0000
45.7325	117.0000
45.7417	120.0000
45.7510	130.0000
45.7602	110.0000
45.7694	137.0000
45.7786	128.0000
45.7879	113.0000
45.7971	147.0000
45.8063	124.0000
45.8155	154.0000
45.8247	123.0000
45.8340	125.0000
45.8432	112.0000
45.8524	123.0000
45.8616	122.0000
45.8709	129.0000
45.8801	111.0000
45.8893	126.0000
45.8985	128.0000
45.9078	130.0000
45.9170	120.0000
45.9262	134.0000
45.9354	128.0000
45.9446	147.0000
45.9539	127.0000
45.9631	135.0000
45.9723	121.0000
45.9815	130.0000
45.9908	118.0000
46.0000	116.0000
46.0092	94.0000
46.0184	142.0000
46.0276	124.0000
46.0369	119.0000
46.0461	127.0000
46.0553	151.0000
46.0645	120.0000
46.0738	133.0000
46.0830	103.0000
46.0922	125.0000
46.1014	120.0000
46.1107	146.0000
46.1199	116.0000
46.1291	126.0000
46.1383	131.0000
46.1475	115.0000
46.1568	128.0000
46.1660	127.0000
46.1752	117.0000
46.1844	125.0000
46.1937	116.0000
46.2029	120.0000
46.2121	120.0000
46.2213	129.0000
46.2305	120.0000
46.2398	129.0000
46.2490	134.0000
46.2582	120.0000
46.2674	116.0000
46.2767	117.0000
46.2859	123.0000
46.2951	125.0000
46.3043	115.0000
46.3135	130.0000
46.3228	124.0000
46.3320	113.0000
46.3412	115.0000
46.3504	134.0000
46.3597	124.0000
46.3689	137.0000
46.3781	114.0000
46.3873	123.0000
46.3966	110.0000
46.4058	124.0000
46.4150	113.0000
46.4242	147.0000
46.4334	124.0000
46.4427	115.0000
46.4519	139.0000
46.4611	125.0000
46.4703	128.0000
46.4796	116.0000
46.4888	138.0000
46.4980	124.0000
46.5072	108.0000
46.5164	129.0000
46.5257	121.0000
46.5349	117.0000
46.5441	106.0000
46.5533	118.0000
46.5626	99.0000
46.5718	126.0000
46.5810	121.0000
46.5902	116.0000
46.5995	124.0000
46.6087	128.0000
46.6179	134.0000
46.6271	130.0000
46.6363	113.0000
46.6456	124.0000
46.6548	124.0000
46.6640	124.0000
46.6732	116.0000
46.6825	134.0000
46.6917	119.0000
46.7009	115.0000
46.7101	123.0000
46.7193	99.0000
46.7286	125.0000
46.7378	108.0000
46.7470	109.0000
46.7562	131.0000
46.7655	134.0000
46.7747	115.0000
46.7839	128.0000
46.7931	113.0000
46.8024	134.0000
46.8116	115.0000
46.8208	128.0000
46.8300	126.0000
46.8392	115.0000
46.8485	110.0000
46.8577	138.0000
46.8669	132.0000
46.8761	115.0000
46.8854	120.0000
46.8946	117.0000
46.9038	103.0000
46.9130	136.0000
46.9222	107.0000
46.9315	108.0000
46.9407	107.0000
46.9499	128.0000
46.9591	134.0000
46.9684	124.0000
46.9776	113.0000
46.9868	114.0000
46.9960	113.0000
47.0052	110.0000
47.0145	119.0000
47.0237	110.0000
47.0329	105.0000
47.0421	109.0000
47.0514	137.0000
47.0606	118.0000
47.0698	115.0000
47.0790	109.0000
47.0883	117.0000
47.0975	103.0000
47.1067	131.0000
47.1159	121.0000
47.1251	139.0000
47.1344	120.0000
47.1436	113.0000
47.1528	117.0000
47.1620	123.0000
47.1713	105.0000
47.1805	123.0000
47.1897	121.0000
47.1989	129.0000
47.2081	98.0000
47.2174	116.0000
47.2266	140.0000
47.2358	112.0000
47.2450	118.0000
47.2543	113.0000
47.2635	115.0000
47.2727	120.0000
47.2819	102.0000
47.2912	98.0000
47.3004	121.0000
47.3096	111.0000
47.3188	110.0000
47.3280	119.0000
47.3373	125.0000
47.3465	102.0000
47.3557	120.0000
47.3649	104.0000
47.3742	141.0000
47.3834	118.0000
47.3926	117.0000
47.4018	118.0000
47.4110	113.0000
47.4203	123.0000
47.4295	116.0000
47.4387	115.0000
47.4479	103.0000
47.4572	131.0000
47.4664	111.0000
47.4756	125.0000
47.4848	128.0000
47.4940	92.0000
47.5033	127.0000
47.5125	128.0000
47.5217	102.0000
47.5309	116.0000
47.5402	125.0000
47.5494	108.0000
47.5586	112.0000
47.5678	124.0000
47.5771	118.0000
47.5863	111.0000
47.5955	123.0000
47.6047	120.0000
47.6139	122.0000
47.6232	135.0000
47.6324	123.0000
47.6416	104.0000
47.6508	106.0000
47.6601	107.0000
47.6693	101.0000
47.6785	109.0000
47.6877	112.0000
47.6969	107.0000
47.7062	107.0000
47.7154	110.0000
47.7246	114.0000
47.7338	104.0000
47.7431	96.0000
47.7523	117.0000
47.7615	117.0000
47.7707	126.0000
47.7800	127.0000
47.7892	131.0000
47.7984	120.0000
47.8076	124.0000
47.8168	130.0000
47.8261	112.0000
47.8353	94.0000
47.8445	109.0000
47.8537	90.0000
47.8630	93.0000
47.8722	105.0000
47.8814	108.0000
47.8906	106.0000
47.8998	113.0000
47.9091	127.0000
47.9183	110.0000
47.9275	120.0000
47.9367	112.0000
47.9460	102.0000
47.9552	118.0000
47.9644	111.0000
47.9736	122.0000
47.9829	104.0000
47.9921	106.0000
48.0013	128.0000
