11.0000	731.0000
11.0092	730.0000
11.0184	760.0000
11.0277	728.0000
11.0369	668.0000
11.0461	708.0000
11.0553	726.0000
11.0646	688.0000
11.0738	731.0000
11.0830	681.0000
11.0922	734.0000
11.1014	702.0000
11.1107	721.0000
11.1199	694.0000
11.1291	732.0000
11.1383	713.0000
11.1476	708.0000
11.1568	689.0000
11.1660	679.0000
11.1752	717.0000
11.1845	676.0000
11.1937	764.0000
11.2029	720.0000
11.2121	657.0000
11.2213	663.0000
11.2306	719.0000
11.2398	720.0000
11.2490	601.0000
11.2582	709.0000
11.2675	703.0000
11.2767	657.0000
11.2859	678.0000
11.2951	665.0000
11.3043	677.0000
11.3136	666.0000
11.3228	711.0000
11.3320	694.0000
11.3412	619.0000
11.3505	639.0000
11.3597	649.0000
11.3689	648.0000
11.3781	676.0000
11.3874	692.0000
11.3966	642.0000
11.4058	662.0000
11.4150	649.0000
11.4242	619.0000
11.4335	624.0000
11.4427	658.0000
11.4519	611.0000
11.4611	655.0000
11.4704	610.0000
11.4796	651.0000
11.4888	607.0000
11.4980	628.0000
11.5072	625.0000
11.5165	592.0000
11.5257	631.0000
11.5349	668.0000
11.5441	641.0000
11.5534	643.0000
11.5626	615.0000
11.5718	626.0000
11.5810	605.0000
11.5902	627.0000
11.5995	599.0000
11.6087	627.0000
11.6179	633.0000
11.6271	622.0000
11.6364	619.0000
11.6456	610.0000
11.6548	595.0000
11.6640	578.0000
11.6733	627.0000
11.6825	589.0000
11.6917	575.0000
11.7009	571.0000
11.7101	576.0000
11.7194	599.0000
11.7286	593.0000
11.7378	596.0000
11.7470	568.0000
11.7563	634.0000
11.7655	608.0000
11.7747	558.0000
11.7839	642.0000
11.7931	546.0000
11.8024	598.0000
11.8116	563.0000
11.8208	621.0000
11.8300	578.0000
11.8393	540.0000
11.8485	578.0000
11.8577	595.0000
11.8669	601.0000
11.8762	575.0000
11.8854	563.0000
11.8946	583.0000
11.9038	555.0000
11.9130	554.0000
11.9223	560.0000
11.9315	545.0000
11.9407	607.0000
11.9499	528.0000
11.9592	540.0000
11.9684	534.0000
11.9776	554.0000
11.9868	558.0000
11.9960	527.0000
12.0053	550.0000
12.0145	532.0000
12.0237	570.0000
12.0329	532.0000
12.0422	539.0000
12.0514	544.0000
12.0606	512.0000
12.0698	545.0000
12.0791	524.0000
12.0883	543.0000
12.0975	545.0000
12.1067	513.0000
12.1159	534.0000
12.1252	537.0000
12.1344	561.0000
12.1436	514.0000
12.1528	497.0000
12.1621	495.0000
12.1713	497.0000
12.1805	514.0000
12.1897	530.0000
12.1989	511.0000
12.2082	513.0000
12.2174	538.0000
12.2266	474.0000
12.2358	548.0000
12.2451	527.0000
12.2543	537.0000
12.2635	484.0000
12.2727	485.0000
12.2819	465.0000
12.2912	480.0000
12.3004	513.0000
12.3096	506.0000
12.3188	476.0000
12.3281	499.0000
12.3373	481.0000
12.3465	488.0000
12.3557	517.0000
12.3650	510.0000
12.3742	520.0000
12.3834	499.0000
12.3926	508.0000
12.4018	523.0000
12.4111	501.0000
12.4203	484.0000
12.4295	542.0000
12.4387	423.0000
12.4480	497.0000
12.4572	490.0000
12.4664	500.0000
12.4756	467.0000
12.4848	463.0000
12.4941	494.0000
12.5033	455.0000
12.5125	509.0000
12.5217	452.0000
12.5310	474.0000
12.5402	492.0000
12.5494	439.0000
12.5586	482.0000
12.5679	480.0000
12.5771	474.0000
12.5863	463.0000
12.5955	456.0000
12.6047	445.0000
12.6140	464.0000
12.6232	462.0000
12.6324	476.0000
12.6416	449.0000
12.6509	492.0000
12.6601	457.0000
12.6693	473.0000
12.6785	447.0000
12.6877	465.0000
12.6970	495.0000
12.7062	463.0000
12.7154	454.0000
12.7246	446.0000
12.7339	441.0000
12.7431	441.0000
12.7523	487.0000
12.7615	471.0000
12.7707	438.0000
12.7800	483.0000
12.7892	469.0000
12.7984	455.0000
12.8076	456.0000
12.8169	479.0000
12.8261	449.0000
12.8353	468.0000
12.8445	430.0000
12.8538	419.0000
12.8630	477.0000
12.8722	469.0000
12.8814	434.0000
12.8906	432.0000
12.8999	459.0000
12.9091	449.0000
12.9183	497.0000
12.9275	482.0000
12.9368	512.0000
12.9460	523.0000
12.9552	555.0000
12.9644	606.0000
12.9736	666.0000
12.9829	852.0000
12.9921	964.0000
13.0013	852.0000
13.0105	653.0000
13.0198	518.0000
13.0290	516.0000
13.0382	510.0000
13.0474	594.0000
13.0567	694.0000
13.0659	672.0000
13.0751	646.0000
13.0843	579.0000
13.0935	474.0000
13.1028	428.0000
13.1120	467.0000
13.1212	430.0000
13.1304	411.0000
13.1397	416.0000
13.1489	420.0000
13.1581	450.0000
13.1673	406.0000
13.1765	407.0000
13.1858	400.0000
13.1950	398.0000
13.2042	418.0000
13.2134	411.0000
13.2227	426.0000
13.2319	379.0000
13.2411	387.0000
13.2503	423.0000
13.2596	422.0000
13.2688	411.0000
13.2780	424.0000
13.2872	374.0000
13.2964	399.0000
13.3057	405.0000
13.3149	409.0000
13.3241	379.0000
13.3333	427.0000
13.3426	408.0000
13.3518	370.0000
13.3610	401.0000
13.3702	434.0000
13.3794	442.0000
13.3887	387.0000
13.3979	413.0000
13.4071	379.0000
13.4163	369.0000
13.4256	401.0000
13.4348	365.0000
13.4440	405.0000
13.4532	427.0000
13.4624	407.0000
13.4717	343.0000
13.4809	391.0000
13.4901	349.0000
13.4993	410.0000
13.5086	377.0000
13.5178	376.0000
13.5270	374.0000
13.5362	380.0000
13.5455	375.0000
13.5547	342.0000
13.5639	355.0000
13.5731	397.0000
13.5823	366.0000
13.5916	368.0000
13.6008	399.0000
13.6100	390.0000
13.6192	379.0000
13.6285	384.0000
13.6377	377.0000
13.6469	398.0000
13.6561	369.0000
13.6653	382.0000
13.6746	347.0000
13.6838	358.0000
13.6930	391.0000
13.7022	371.0000
13.7115	341.0000
13.7207	354.0000
13.7299	349.0000
13.7391	354.0000
13.7484	395.0000
13.7576	391.0000
13.7668	367.0000
13.7760	352.0000
13.7852	353.0000
13.7945	407.0000
13.8037	399.0000
13.8129	370.0000
13.8221	354.0000
13.8314	361.0000
13.8406	355.0000
13.8498	368.0000
13.8590	352.0000
13.8682	330.0000
13.8775	363.0000
13.8867	380.0000
13.8959	347.0000
13.9051	373.0000
13.9144	359.0000
13.9236	350.0000
13.9328	342.0000
13.9420	354.0000
13.9512	333.0000
13.9605	350.0000
13.9697	377.0000
13.9789	362.0000
13.9881	381.0000
13.9974	350.0000
14.0066	346.0000
14.0158	336.0000
14.0250	329.0000
14.0343	370.0000
14.0435	340.0000
14.0527	331.0000
14.0619	340.0000
14.0711	382.0000
14.0804	370.0000
14.0896	378.0000
14.0988	375.0000
14.1080	372.0000
14.1173	335.0000
14.1265	336.0000
14.1357	330.0000
14.1449	347.0000
14.1541	341.0000
14.1634	307.0000
14.1726	334.0000
14.1818	312.0000
14.1910	336.0000
14.2003	372.0000
14.2095	320.0000
14.2187	362.0000
14.2279	360.0000
14.2372	350.0000
14.2464	318.0000
14.2556	314.0000
14.2648	360.0000
14.2740	330.0000
14.2833	334.0000
14.2925	315.0000
14.3017	325.0000
14.3109	331.0000
14.3202	340.0000
14.3294	345.0000
14.3386	321.0000
14.3478	290.0000
14.3570	343.0000
14.3663	330.0000
14.3755	316.0000
14.3847	308.0000
14.3939	349.0000
14.4032	325.0000
14.4124	307.0000
14.4216	309.0000
14.4308	332.0000
14.4401	347.0000
14.4493	372.0000
14.4585	350.0000
14.4677	326.0000
14.4769	335.0000
14.4862	320.0000
14.4954	317.0000
14.5046	333.0000
14.5138	325.0000
14.5231	298.0000
14.5323	335.0000
14.5415	314.0000
14.5507	327.0000
14.5599	311.0000
14.5692	319.0000
14.5784	355.0000
14.5876	325.0000
14.5968	309.0000
14.6061	321.0000
14.6153	327.0000
14.6245	311.0000
14.6337	327.0000
14.6429	313.0000
14.6522	325.0000
14.6614	340.0000
14.6706	331.0000
14.6798	296.0000
14.6891	358.0000
14.6983	315.0000
14.7075	309.0000
14.7167	287.0000
14.7260	298.0000
14.7352	317.0000
14.7444	310.0000
14.7536	324.0000
14.7628	336.0000
14.7721	330.0000
14.7813	290.0000
14.7905	311.0000
14.7997	306.0000
14.8090	324.0000
14.8182	353.0000
14.8274	331.0000
14.8366	325.0000
14.8458	304.0000
14.8551	287.0000
14.8643	287.0000
14.8735	292.0000
14.8827	284.0000
14.8920	288.0000
14.9012	306.0000
14.9104	303.0000
14.9196	298.0000
14.9289	302.0000
14.9381	338.0000
14.9473	294.0000
14.9565	292.0000
14.9657	298.0000
14.9750	285.0000
14.9842	302.0000
14.9934	311.0000
15.0026	315.0000
15.0119	289.0000
15.0211	317.0000
15.0303	315.0000
15.0395	305.0000
15.0487	323.0000
15.0580	279.0000
15.0672	283.0000
15.0764	296.0000
15.0856	272.0000
15.0949	322.0000
15.1041	276.0000
15.1133	275.0000
15.1225	316.0000
15.1317	304.0000
15.1410	273.0000
15.1502	305.0000
15.1594	284.0000
15.1686	269.0000
15.1779	282.0000
15.1871	283.0000
15.1963	311.0000
15.2055	273.0000
15.2148	291.0000
15.2240	287.0000
15.2332	275.0000
15.2424	283.0000
15.2516	324.0000
15.2609	284.0000
15.2701	311.0000
15.2793	307.0000
15.2885	304.0000
15.2978	302.0000
15.3070	301.0000
15.3162	278.0000
15.3254	302.0000
15.3346	291.0000
15.3439	308.0000
15.3531	282.0000
15.3623	274.0000
15.3715	317.0000
15.3808	281.0000
15.3900	283.0000
15.3992	305.0000
15.4084	287.0000
15.4177	301.0000
15.4269	264.0000
15.4361	261.0000
15.4453	289.0000
15.4545	325.0000
15.4638	259.0000
15.4730	301.0000
15.4822	280.0000
15.4914	299.0000
15.5007	271.0000
15.5099	282.0000
15.5191	279.0000
15.5283	292.0000
15.5375	294.0000
15.5468	275.0000
15.5560	263.0000
15.5652	301.0000
15.5744	278.0000
15.5837	272.0000
15.5929	316.0000
15.6021	278.0000
15.6113	275.0000
15.6206	315.0000
15.6298	259.0000
15.6390	253.0000
15.6482	294.0000
15.6574	284.0000
15.6667	296.0000
15.6759	278.0000
15.6851	302.0000
15.6943	279.0000
15.7036	276.0000
15.7128	295.0000
15.7220	254.0000
15.7312	286.0000
15.7404	300.0000
15.7497	272.0000
15.7589	294.0000
15.7681	272.0000
15.7773	256.0000
15.7866	293.0000
15.7958	259.0000
15.8050	276.0000
15.8142	296.0000
15.8234	277.0000
15.8327	268.0000
15.8419	286.0000
15.8511	244.0000
15.8603	268.0000
15.8696	274.0000
15.8788	252.0000
15.8880	264.0000
15.8972	231.0000
15.9065	278.0000
15.9157	243.0000
15.9249	280.0000
15.9341	226.0000
15.9433	247.0000
15.9526	281.0000
15.9618	289.0000
15.9710	272.0000
15.9802	276.0000
15.9895	302.0000
15.9987	250.0000
16.0079	262.0000
16.0171	269.0000
16.0263	277.0000
16.0356	244.0000
16.0448	260.0000
16.0540	257.0000
16.0632	261.0000
16.0725	282.0000
16.0817	286.0000
16.0909	260.0000
16.1001	247.0000
16.1094	260.0000
16.1186	260.0000
16.1278	244.0000
16.1370	252.0000
16.1462	262.0000
16.1555	265.0000
16.1647	244.0000
16.1739	259.0000
16.1831	286.0000
16.1924	246.0000
16.2016	267.0000
16.2108	222.0000
16.2200	262.0000
16.2292	263.0000
16.2385	267.0000
16.2477	265.0000
16.2569	244.0000
16.2661	249.0000
16.2754	252.0000
16.2846	251.0000
16.2938	271.0000
16.3030	274.0000
16.3122	268.0000
16.3215	222.0000
16.3307	284.0000
16.3399	257.0000
16.3491	247.0000
16.3584	285.0000
16.3676	270.0000
16.3768	260.0000
16.3860	255.0000
16.3953	239.0000
16.4045	234.0000
16.4137	277.0000
16.4229	255.0000
16.4321	241.0000
16.4414	254.0000
16.4506	285.0000
16.4598	255.0000
16.4690	240.0000
16.4783	245.0000
16.4875	232.0000
16.4967	261.0000
16.5059	234.0000
16.5151	261.0000
16.5244	233.0000
16.5336	232.0000
16.5428	252.0000
16.5520	245.0000
16.5613	265.0000
16.5705	248.0000
16.5797	243.0000
16.5889	245.0000
16.5982	268.0000
16.6074	233.0000
16.6166	239.0000
16.6258	240.0000
16.6350	250.0000
16.6443	250.0000
16.6535	236.0000
16.6627	231.0000
16.6719	237.0000
16.6812	240.0000
16.6904	224.0000
16.6996	228.0000
16.7088	239.0000
16.7180	241.0000
16.7273	263.0000
16.7365	213.0000
16.7457	230.0000
16.7549	231.0000
16.7642	266.0000
16.7734	251.0000
16.7826	257.0000
16.7918	235.0000
16.8011	238.0000
16.8103	238.0000
16.8195	255.0000
16.8287	243.0000
16.8379	231.0000
16.8472	252.0000
16.8564	263.0000
16.8656	233.0000
16.8748	210.0000
16.8841	195.0000
16.8933	237.0000
16.9025	262.0000
16.9117	229.0000
16.9209	232.0000
16.9302	249.0000
16.9394	226.0000
16.9486	234.0000
16.9578	238.0000
16.9671	226.0000
16.9763	257.0000
16.9855	248.0000
16.9947	238.0000
17.0039	211.0000
17.0132	233.0000
17.0224	216.0000
17.0316	245.0000
17.0408	229.0000
17.0501	221.0000
17.0593	236.0000
17.0685	244.0000
17.0777	250.0000
17.0870	225.0000
17.0962	214.0000
17.1054	248.0000
17.1146	217.0000
17.1238	221.0000
17.1331	215.0000
17.1423	252.0000
17.1515	237.0000
17.1607	222.0000
17.1700	209.0000
17.1792	230.0000
17.1884	220.0000
17.1976	240.0000
17.2068	216.0000
17.2161	253.0000
17.2253	221.0000
17.2345	225.0000
17.2437	212.0000
17.2530	222.0000
17.2622	220.0000
17.2714	226.0000
17.2806	195.0000
17.2899	224.0000
17.2991	194.0000
17.3083	215.0000
17.3175	223.0000
17.3267	215.0000
17.3360	226.0000
17.3452	214.0000
17.3544	204.0000
17.3636	225.0000
17.3729	211.0000
17.3821	215.0000
17.3913	240.0000
17.4005	223.0000
17.4097	249.0000
17.4190	201.0000
17.4282	214.0000
17.4374	195.0000
17.4466	207.0000
17.4559	216.0000
17.4651	230.0000
17.4743	226.0000
17.4835	214.0000
17.4927	211.0000
17.5020	204.0000
17.5112	205.0000
17.5204	227.0000
17.5296	222.0000
17.5389	231.0000
17.5481	221.0000
17.5573	185.0000
17.5665	214.0000
17.5758	209.0000
17.5850	241.0000
17.5942	207.0000
17.6034	204.0000
17.6126	214.0000
17.6219	211.0000
17.6311	199.0000
17.6403	211.0000
17.6495	234.0000
17.6588	186.0000
17.6680	201.0000
17.6772	217.0000
17.6864	212.0000
17.6956	197.0000
17.7049	199.0000
17.7141	234.0000
17.7233	221.0000
17.7325	191.0000
17.7418	202.0000
17.7510	227.0000
17.7602	200.0000
17.7694	184.0000
17.7787	195.0000
17.7879	216.0000
17.7971	224.0000
17.8063	193.0000
17.8155	205.0000
17.8248	179.0000
17.8340	221.0000
17.8432	195.0000
17.8524	204.0000
17.8617	209.0000
17.8709	181.0000
17.8801	222.0000
17.8893	199.0000
17.8985	199.0000
17.9078	212.0000
17.9170	207.0000
17.9262	202.0000
17.9354	196.0000
17.9447	186.0000
17.9539	211.0000
17.9631	191.0000
17.9723	194.0000
17.9816	220.0000
17.9908	204.0000
18.0000	200.0000
18.0092	197.0000
18.0184	219.0000
18.0277	208.0000
18.0369	206.0000
18.0461	199.0000
18.0553	209.0000
18.0646	201.0000
18.0738	181.0000
18.0830	197.0000
18.0922	169.0000
18.1014	209.0000
18.1107	194.0000
18.1199	186.0000
18.1291	179.0000
18.1383	207.0000
18.1476	214.0000
18.1568	200.0000
18.1660	220.0000
18.1752	188.0000
18.1844	160.0000
18.1937	197.0000
18.2029	198.0000
18.2121	206.0000
18.2213	216.0000
18.2306	185.0000
18.2398	195.0000
18.2490	197.0000
18.2582	181.0000
18.2675	208.0000
18.2767	173.0000
18.2859	184.0000
18.2951	193.0000
18.3043	217.0000
18.3136	210.0000
18.3228	177.0000
18.3320	215.0000
18.3412	189.0000
18.3505	202.0000
18.3597	193.0000
18.3689	208.0000
18.3781	198.0000
18.3873	223.0000
18.3966	193.0000
18.4058	188.0000
18.4150	174.0000
18.4242	197.0000
18.4335	173.0000
18.4427	218.0000
18.4519	189.0000
18.4611	203.0000
18.4704	251.0000
18.4796	195.0000
18.4888	210.0000
18.4980	188.0000
18.5072	210.0000
18.5165	186.0000
18.5257	212.0000
18.5349	185.0000
18.5441	192.0000
18.5534	196.0000
18.5626	171.0000
18.5718	201.0000
18.5810	201.0000
18.5902	202.0000
18.5995	212.0000
18.6087	181.0000
18.6179	206.0000
18.6271	186.0000
18.6364	197.0000
18.6456	191.0000
18.6548	196.0000
18.6640	197.0000
18.6732	195.0000
18.6825	201.0000
18.6917	182.0000
18.7009	176.0000
18.7101	191.0000
18.7194	217.0000
18.7286	199.0000
18.7378	194.0000
18.7470	194.0000
18.7563	208.0000
18.7655	168.0000
18.7747	196.0000
18.7839	199.0000
18.7931	192.0000
18.8024	160.0000
18.8116	188.0000
18.8208	188.0000
18.8300	209.0000
18.8393	182.0000
18.8485	171.0000
18.8577	224.0000
18.8669	203.0000
18.8761	175.0000
18.8854	199.0000
18.8946	194.0000
18.9038	194.0000
18.9130	181.0000
18.9223	196.0000
18.9315	222.0000
18.9407	185.0000
18.9499	181.0000
18.9592	198.0000
18.9684	187.0000
18.9776	205.0000
18.9868	198.0000
18.9960	187.0000
19.0053	169.0000
19.0145	167.0000
19.0237	188.0000
19.0329	215.0000
19.0422	214.0000
19.0514	180.0000
19.0606	181.0000
19.0698	213.0000
19.0790	192.0000
19.0883	186.0000
19.0975	202.0000
19.1067	214.0000
19.1159	210.0000
19.1252	177.0000
19.1344	177.0000
19.1436	187.0000
19.1528	196.0000
19.1621	189.0000
19.1713	189.0000
19.1805	234.0000
19.1897	180.0000
19.1989	212.0000
19.2082	170.0000
19.2174	203.0000
19.2266	181.0000
19.2358	184.0000
19.2451	207.0000
19.2543	194.0000
19.2635	170.0000
19.2727	195.0000
19.2819	172.0000
19.2912	172.0000
19.3004	199.0000
19.3096	205.0000
19.3188	199.0000
19.3281	192.0000
19.3373	191.0000
19.3465	170.0000
19.3557	190.0000
19.3649	210.0000
19.3742	195.0000
19.3834	182.0000
19.3926	197.0000
19.4018	207.0000
19.4111	206.0000
19.4203	208.0000
19.4295	214.0000
19.4387	190.0000
19.4480	181.0000
19.4572	193.0000
19.4664	196.0000
19.4756	176.0000
19.4848	209.0000
19.4941	188.0000
19.5033	200.0000
19.5125	199.0000
19.5217	199.0000
19.5310	213.0000
19.5402	213.0000
19.5494	203.0000
19.5586	218.0000
19.5678	208.0000
19.5771	220.0000
19.5863	169.0000
19.5955	183.0000
19.6047	170.0000
19.6140	190.0000
19.6232	197.0000
19.6324	195.0000
19.6416	185.0000
19.6509	177.0000
19.6601	190.0000
19.6693	203.0000
19.6785	204.0000
19.6877	193.0000
19.6970	215.0000
19.7062	186.0000
19.7154	204.0000
19.7246	192.0000
19.7339	199.0000
19.7431	184.0000
19.7523	194.0000
19.7615	184.0000
19.7707	189.0000
19.7800	195.0000
19.7892	188.0000
19.7984	186.0000
19.8076	175.0000
19.8169	194.0000
19.8261	197.0000
19.8353	171.0000
19.8445	183.0000
19.8537	158.0000
19.8630	207.0000
19.8722	183.0000
19.8814	197.0000
19.8906	175.0000
19.8999	193.0000
19.9091	176.0000
19.9183	169.0000
19.9275	197.0000
19.9368	211.0000
19.9460	184.0000
19.9552	197.0000
19.9644	218.0000
19.9736	191.0000
19.9829	206.0000
19.9921	201.0000
20.0013	187.0000
20.0105	177.0000
20.0198	188.0000
20.0290	159.0000
20.0382	197.0000
20.0474	205.0000
20.0566	176.0000
20.0659	198.0000
20.0751	164.0000
20.0843	203.0000
20.0935	183.0000
20.1028	215.0000
20.1120	195.0000
20.1212	193.0000
20.1304	199.0000
20.1397	195.0000
20.1489	178.0000
20.1581	189.0000
20.1673	189.0000
20.1765	180.0000
20.1858	171.0000
20.1950	187.0000
20.2042	204.0000
20.2134	209.0000
20.2227	195.0000
20.2319	198.0000
20.2411	183.0000
20.2503	196.0000
20.2595	205.0000
20.2688	203.0000
20.2780	217.0000
20.2872	190.0000
20.2964	205.0000
20.3057	192.0000
20.3149	199.0000
20.3241	170.0000
20.3333	177.0000
20.3426	167.0000
20.3518	191.0000
20.3610	214.0000
20.3702	172.0000
20.3794	205.0000
20.3887	212.0000
20.3979	214.0000
20.4071	184.0000
20.4163	199.0000
20.4256	185.0000
20.4348	181.0000
20.4440	172.0000
20.4532	179.0000
20.4624	184.0000
20.4717	221.0000
20.4809	194.0000
20.4901	172.0000
20.4993	188.0000
20.5086	186.0000
20.5178	214.0000
20.5270	178.0000
20.5362	193.0000
20.5454	201.0000
20.5547	223.0000
20.5639	180.0000
20.5731	198.0000
20.5823	169.0000
20.5916	196.0000
20.6008	179.0000
20.6100	220.0000
20.6192	215.0000
20.6285	207.0000
20.6377	186.0000
20.6469	193.0000
20.6561	195.0000
20.6653	197.0000
20.6746	184.0000
20.6838	184.0000
20.6930	198.0000
20.7022	185.0000
20.7115	191.0000
20.7207	196.0000
20.7299	197.0000
20.7391	204.0000
20.7483	205.0000
20.7576	173.0000
20.7668	191.0000
20.7760	197.0000
20.7852	169.0000
20.7945	195.0000
20.8037	189.0000
20.8129	210.0000
20.8221	198.0000
20.8314	187.0000
20.8406	176.0000
20.8498	204.0000
20.8590	190.0000
20.8682	196.0000
20.8775	192.0000
20.8867	212.0000
20.8959	195.0000
20.9051	225.0000
20.9144	212.0000
20.9236	225.0000
20.9328	222.0000
20.9420	197.0000
20.9512	192.0000
20.9605	214.0000
20.9697	182.0000
20.9789	161.0000
20.9881	163.0000
20.9974	219.0000
21.0066	182.0000
21.0158	184.0000
21.0250	203.0000
21.0342	197.0000
21.0435	177.0000
21.0527	184.0000
21.0619	197.0000
21.0711	191.0000
21.0804	218.0000
21.0896	201.0000
21.0988	203.0000
21.1080	205.0000
21.1173	187.0000
21.1265	201.0000
21.1357	182.0000
21.1449	216.0000
21.1541	185.0000
21.1634	184.0000
21.1726	175.0000
21.1818	191.0000
21.1910	190.0000
21.2003	226.0000
21.2095	227.0000
21.2187	217.0000
21.2279	265.0000
21.2371	300.0000
21.2464	319.0000
21.2556	388.0000
21.2648	498.0000
21.2740	654.0000
21.2833	815.0000
21.2925	927.0000
21.3017	1006.0000
21.3109	823.0000
21.3202	605.0000
21.3294	471.0000
21.3386	329.0000
21.3478	286.0000
21.3570	289.0000
21.3663	287.0000
21.3755	278.0000
21.3847	306.0000
21.3939	386.0000
21.4032	466.0000
21.4124	530.0000
21.4216	562.0000
21.4308	519.0000
21.4400	492.0000
21.4493	396.0000
21.4585	301.0000
21.4677	232.0000
21.4769	196.0000
21.4862	212.0000
21.4954	214.0000
21.5046	217.0000
21.5138	207.0000
21.5231	211.0000
21.5323	191.0000
21.5415	195.0000
21.5507	185.0000
21.5599	191.0000
21.5692	200.0000
21.5784	224.0000
21.5876	187.0000
21.5968	183.0000
21.6061	200.0000
21.6153	203.0000
21.6245	191.0000
21.6337	202.0000
21.6429	193.0000
21.6522	198.0000
21.6614	161.0000
21.6706	169.0000
21.6798	175.0000
21.6891	183.0000
21.6983	178.0000
21.7075	181.0000
21.7167	205.0000
21.7259	192.0000
21.7352	194.0000
21.7444	199.0000
21.7536	184.0000
21.7628	183.0000
21.7721	184.0000
21.7813	189.0000
21.7905	206.0000
21.7997	195.0000
21.8090	198.0000
21.8182	191.0000
21.8274	179.0000
21.8366	180.0000
21.8458	215.0000
21.8551	185.0000
21.8643	196.0000
21.8735	209.0000
21.8827	194.0000
21.8920	198.0000
21.9012	186.0000
21.9104	192.0000
21.9196	170.0000
21.9288	185.0000
21.9381	192.0000
21.9473	190.0000
21.9565	215.0000
21.9657	194.0000
21.9750	191.0000
21.9842	185.0000
21.9934	177.0000
22.0026	213.0000
22.0119	208.0000
22.0211	183.0000
22.0303	210.0000
22.0395	185.0000
22.0487	185.0000
22.0580	197.0000
22.0672	204.0000
22.0764	206.0000
22.0856	200.0000
22.0949	180.0000
22.1041	175.0000
22.1133	192.0000
22.1225	178.0000
22.1317	166.0000
22.1410	209.0000
22.1502	206.0000
22.1594	182.0000
22.1686	197.0000
22.1779	201.0000
22.1871	171.0000
22.1963	218.0000
22.2055	182.0000
22.2147	177.0000
22.2240	175.0000
22.2332	198.0000
22.2424	172.0000
22.2516	171.0000
22.2609	192.0000
22.2701	185.0000
22.2793	167.0000
22.2885	198.0000
22.2978	208.0000
22.3070	196.0000
22.3162	185.0000
22.3254	196.0000
22.3346	180.0000
22.3439	180.0000
22.3531	176.0000
22.3623	172.0000
22.3715	173.0000
22.3808	189.0000
22.3900	185.0000
22.3992	187.0000
22.4084	193.0000
22.4176	200.0000
22.4269	169.0000
22.4361	177.0000
22.4453	204.0000
22.4545	161.0000
22.4638	180.0000
22.4730	192.0000
22.4822	175.0000
22.4914	187.0000
22.5007	191.0000
22.5099	173.0000
22.5191	165.0000
22.5283	175.0000
22.5375	176.0000
22.5468	183.0000
22.5560	183.0000
22.5652	178.0000
22.5744	205.0000
22.5837	180.0000
22.5929	215.0000
22.6021	173.0000
22.6113	197.0000
22.6205	213.0000
22.6298	169.0000
22.6390	202.0000
22.6482	183.0000
22.6574	200.0000
22.6667	195.0000
22.6759	169.0000
22.6851	194.0000
22.6943	185.0000
22.7036	160.0000
22.7128	171.0000
22.7220	154.0000
22.7312	180.0000
22.7404	182.0000
22.7497	200.0000
22.7589	160.0000
22.7681	188.0000
22.7773	201.0000
22.7866	165.0000
22.7958	177.0000
22.8050	200.0000
22.8142	173.0000
22.8234	178.0000
22.8327	220.0000
22.8419	166.0000
22.8511	194.0000
22.8603	144.0000
22.8696	165.0000
22.8788	183.0000
22.8880	201.0000
22.8972	176.0000
22.9064	195.0000
22.9157	201.0000
22.9249	172.0000
22.9341	160.0000
22.9433	192.0000
22.9526	177.0000
22.9618	151.0000
22.9710	160.0000
22.9802	182.0000
22.9895	176.0000
22.9987	163.0000
23.0079	185.0000
23.0171	187.0000
23.0263	193.0000
23.0356	186.0000
23.0448	171.0000
23.0540	205.0000
23.0632	175.0000
23.0725	157.0000
23.0817	164.0000
23.0909	190.0000
23.1001	161.0000
23.1093	178.0000
23.1186	161.0000
23.1278	163.0000
23.1370	185.0000
23.1462	192.0000
23.1555	203.0000
23.1647	173.0000
23.1739	208.0000
23.1831	158.0000
23.1924	185.0000
23.2016	181.0000
23.2108	183.0000
23.2200	172.0000
23.2292	187.0000
23.2385	185.0000
23.2477	205.0000
23.2569	186.0000
23.2661	195.0000
23.2754	194.0000
23.2846	196.0000
23.2938	197.0000
23.3030	189.0000
23.3122	168.0000
23.3215	197.0000
23.3307	180.0000
23.3399	171.0000
23.3491	199.0000
23.3584	185.0000
23.3676	168.0000
23.3768	172.0000
23.3860	169.0000
23.3952	183.0000
23.4045	153.0000
23.4137	171.0000
23.4229	178.0000
23.4321	168.0000
23.4414	153.0000
23.4506	177.0000
23.4598	176.0000
23.4690	174.0000
23.4783	173.0000
23.4875	172.0000
23.4967	143.0000
23.5059	165.0000
23.5151	154.0000
23.5244	174.0000
23.5336	182.0000
23.5428	165.0000
23.5520	192.0000
23.5613	197.0000
23.5705	182.0000
23.5797	147.0000
23.5889	181.0000
23.5981	178.0000
23.6074	167.0000
23.6166	190.0000
23.6258	162.0000
23.6350	183.0000
23.6443	175.0000
23.6535	185.0000
23.6627	188.0000
23.6719	186.0000
23.6812	174.0000
23.6904	191.0000
23.6996	176.0000
23.7088	165.0000
23.7180	189.0000
23.7273	178.0000
23.7365	173.0000
23.7457	180.0000
23.7549	179.0000
23.7642	165.0000
23.7734	182.0000
23.7826	176.0000
23.7918	193.0000
23.8010	167.0000
23.8103	189.0000
23.8195	163.0000
23.8287	162.0000
23.8379	189.0000
23.8472	168.0000
23.8564	167.0000
23.8656	200.0000
23.8748	174.0000
23.8841	222.0000
23.8933	180.0000
23.9025	165.0000
23.9117	157.0000
23.9209	183.0000
23.9302	179.0000
23.9394	172.0000
23.9486	161.0000
23.9578	156.0000
23.9671	183.0000
23.9763	173.0000
23.9855	178.0000
23.9947	187.0000
24.0039	183.0000
24.0132	170.0000
24.0224	191.0000
24.0316	170.0000
24.0408	180.0000
24.0501	181.0000
24.0593	168.0000
24.0685	165.0000
24.0777	179.0000
24.0869	188.0000
24.0962	166.0000
24.1054	155.0000
24.1146	189.0000
24.1238	204.0000
24.1331	182.0000
24.1423	169.0000
24.1515	146.0000
24.1607	166.0000
24.1700	177.0000
24.1792	170.0000
24.1884	178.0000
24.1976	151.0000
24.2068	166.0000
24.2161	174.0000
24.2253	191.0000
24.2345	170.0000
24.2437	171.0000
24.2530	174.0000
24.2622	179.0000
24.2714	179.0000
24.2806	153.0000
24.2898	175.0000
24.2991	168.0000
24.3083	179.0000
24.3175	172.0000
24.3267	191.0000
24.3360	170.0000
24.3452	190.0000
24.3544	198.0000
24.3636	181.0000
24.3729	204.0000
24.3821	183.0000
24.3913	190.0000
24.4005	188.0000
24.4097	183.0000
24.4190	177.0000
24.4282	190.0000
24.4374	172.0000
24.4466	193.0000
24.4559	168.0000
24.4651	170.0000
24.4743	176.0000
24.4835	185.0000
24.4927	204.0000
24.5020	183.0000
24.5112	190.0000
24.5204	179.0000
24.5296	171.0000
24.5389	208.0000
24.5481	182.0000
24.5573	173.0000
24.5665	166.0000
24.5757	176.0000
24.5850	176.0000
24.5942	167.0000
24.6034	176.0000
24.6126	177.0000
24.6219	167.0000
24.6311	157.0000
24.6403	205.0000
24.6495	188.0000
24.6588	174.0000
24.6680	172.0000
24.6772	191.0000
24.6864	182.0000
24.6956	176.0000
24.7049	191.0000
24.7141	168.0000
24.7233	169.0000
24.7325	205.0000
24.7418	189.0000
24.7510	157.0000
24.7602	189.0000
24.7694	184.0000
24.7786	184.0000
24.7879	196.0000
24.7971	171.0000
24.8063	189.0000
24.8155	194.0000
24.8248	181.0000
24.8340	177.0000
24.8432	178.0000
24.8524	178.0000
24.8617	196.0000
24.8709	214.0000
24.8801	168.0000
24.8893	189.0000
24.8985	197.0000
24.9078	186.0000
24.9170	177.0000
24.9262	188.0000
24.9354	190.0000
24.9447	188.0000
24.9539	171.0000
24.9631	208.0000
24.9723	187.0000
24.9815	214.0000
24.9908	221.0000
25.0000	278.0000
25.0092	299.0000
25.0184	389.0000
25.0277	507.0000
25.0369	534.0000
25.0461	512.0000
25.0553	395.0000
25.0646	327.0000
25.0738	285.0000
25.0830	255.0000
25.0922	187.0000
25.1014	191.0000
25.1107	181.0000
25.1199	196.0000
25.1291	204.0000
25.1383	210.0000
25.1476	234.0000
25.1568	248.0000
25.1660	294.0000
25.1752	321.0000
25.1844	356.0000
25.1937	306.0000
25.2029	288.0000
25.2121	289.0000
25.2213	233.0000
25.2306	251.0000
25.2398	197.0000
25.2490	185.0000
25.2582	180.0000
25.2674	176.0000
25.2767	183.0000
25.2859	175.0000
25.2951	178.0000
25.3043	197.0000
25.3136	174.0000
25.3228	190.0000
25.3320	219.0000
25.3412	168.0000
25.3505	174.0000
25.3597	194.0000
25.3689	197.0000
25.3781	201.0000
25.3873	201.0000
25.3966	207.0000
25.4058	184.0000
25.4150	212.0000
25.4242	191.0000
25.4335	163.0000
25.4427	180.0000
25.4519	192.0000
25.4611	177.0000
25.4703	180.0000
25.4796	175.0000
25.4888	177.0000
25.4980	178.0000
25.5072	171.0000
25.5165	191.0000
25.5257	171.0000
25.5349	188.0000
25.5441	176.0000
25.5534	165.0000
25.5626	193.0000
25.5718	210.0000
25.5810	173.0000
25.5902	197.0000
25.5995	181.0000
25.6087	196.0000
25.6179	188.0000
25.6271	167.0000
25.6364	191.0000
25.6456	183.0000
25.6548	211.0000
25.6640	195.0000
25.6732	185.0000
25.6825	190.0000
25.6917	181.0000
25.7009	186.0000
25.7101	175.0000
25.7194	183.0000
25.7286	179.0000
25.7378	191.0000
25.7470	172.0000
25.7562	193.0000
25.7655	189.0000
25.7747	192.0000
25.7839	186.0000
25.7931	183.0000
25.8024	185.0000
25.8116	194.0000
25.8208	188.0000
25.8300	210.0000
25.8393	199.0000
25.8485	197.0000
25.8577	200.0000
25.8669	175.0000
25.8761	180.0000
25.8854	158.0000
25.8946	173.0000
25.9038	179.0000
25.9130	196.0000
25.9223	167.0000
25.9315	186.0000
25.9407	214.0000
25.9499	179.0000
25.9591	198.0000
25.9684	186.0000
25.9776	201.0000
25.9868	170.0000
25.9960	187.0000
26.0053	160.0000
26.0145	167.0000
26.0237	193.0000
26.0329	187.0000
26.0422	193.0000
26.0514	181.0000
26.0606	166.0000
26.0698	195.0000
26.0790	197.0000
26.0883	183.0000
26.0975	185.0000
26.1067	197.0000
26.1159	190.0000
26.1252	185.0000
26.1344	214.0000
26.1436	193.0000
26.1528	206.0000
26.1620	199.0000
26.1713	177.0000
26.1805	192.0000
26.1897	217.0000
26.1989	193.0000
26.2082	181.0000
26.2174	182.0000
26.2266	172.0000
26.2358	222.0000
26.2451	192.0000
26.2543	204.0000
26.2635	191.0000
26.2727	195.0000
26.2819	193.0000
26.2912	173.0000
26.3004	162.0000
26.3096	183.0000
26.3188	208.0000
26.3281	184.0000
26.3373	210.0000
26.3465	190.0000
26.3557	189.0000
26.3649	185.0000
26.3742	197.0000
26.3834	185.0000
26.3926	179.0000
26.4018	196.0000
26.4111	200.0000
26.4203	204.0000
26.4295	186.0000
26.4387	171.0000
26.4479	165.0000
26.4572	190.0000
26.4664	196.0000
26.4756	182.0000
26.4848	201.0000
26.4941	192.0000
26.5033	200.0000
26.5125	181.0000
26.5217	206.0000
26.5310	188.0000
26.5402	188.0000
26.5494	183.0000
26.5586	201.0000
26.5678	196.0000
26.5771	172.0000
26.5863	183.0000
26.5955	168.0000
26.6047	168.0000
26.6140	221.0000
26.6232	196.0000
26.6324	206.0000
26.6416	177.0000
26.6508	212.0000
26.6601	158.0000
26.6693	185.0000
26.6785	168.0000
26.6877	228.0000
26.6970	203.0000
26.7062	163.0000
26.7154	217.0000
26.7246	196.0000
26.7339	181.0000
26.7431	198.0000
26.7523	214.0000
26.7615	215.0000
26.7707	188.0000
26.7800	200.0000
26.7892	190.0000
26.7984	192.0000
26.8076	200.0000
26.8169	191.0000
26.8261	197.0000
26.8353	207.0000
26.8445	204.0000
26.8537	187.0000
26.8630	210.0000
26.8722	185.0000
26.8814	203.0000
26.8906	203.0000
26.8999	197.0000
26.9091	174.0000
26.9183	209.0000
26.9275	193.0000
26.9367	194.0000
26.9460	208.0000
26.9552	196.0000
26.9644	189.0000
26.9736	205.0000
26.9829	201.0000
26.9921	185.0000
27.0013	192.0000
27.0105	202.0000
27.0198	184.0000
27.0290	198.0000
27.0382	201.0000
27.0474	208.0000
27.0566	172.0000
27.0659	190.0000
27.0751	191.0000
27.0843	209.0000
27.0935	194.0000
27.1028	195.0000
27.1120	191.0000
27.1212	170.0000
27.1304	196.0000
27.1396	189.0000
27.1489	184.0000
27.1581	203.0000
27.1673	176.0000
27.1765	214.0000
27.1858	195.0000
27.1950	189.0000
27.2042	203.0000
27.2134	193.0000
27.2227	185.0000
27.2319	188.0000
27.2411	188.0000
27.2503	201.0000
27.2595	205.0000
27.2688	206.0000
27.2780	209.0000
27.2872	181.0000
27.2964	197.0000
27.3057	193.0000
27.3149	195.0000
27.3241	182.0000
27.3333	193.0000
27.3425	180.0000
27.3518	198.0000
27.3610	199.0000
27.3702	181.0000
27.3794	215.0000
27.3887	207.0000
27.3979	183.0000
27.4071	214.0000
27.4163	193.0000
27.4256	188.0000
27.4348	198.0000
27.4440	172.0000
27.4532	201.0000
27.4624	196.0000
27.4717	206.0000
27.4809	220.0000
27.4901	195.0000
27.4993	194.0000
27.5086	175.0000
27.5178	202.0000
27.5270	204.0000
27.5362	191.0000
27.5454	201.0000
27.5547	185.0000
27.5639	213.0000
27.5731	206.0000
27.5823	202.0000
27.5916	209.0000
27.6008	196.0000
27.6100	218.0000
27.6192	191.0000
27.6284	183.0000
27.6377	200.0000
27.6469	212.0000
27.6561	171.0000
27.6653	212.0000
27.6746	199.0000
27.6838	197.0000
27.6930	180.0000
27.7022	212.0000
27.7115	190.0000
27.7207	213.0000
27.7299	184.0000
27.7391	190.0000
27.7483	200.0000
27.7576	204.0000
27.7668	191.0000
27.7760	210.0000
27.7852	177.0000
27.7945	176.0000
27.8037	203.0000
27.8129	176.0000
27.8221	199.0000
27.8313	177.0000
27.8406	190.0000
27.8498	194.0000
27.8590	234.0000
27.8682	201.0000
27.8775	214.0000
27.8867	184.0000
27.8959	176.0000
27.9051	191.0000
27.9144	222.0000
27.9236	203.0000
27.9328	210.0000
27.9420	172.0000
27.9512	216.0000
27.9605	196.0000
27.9697	176.0000
27.9789	205.0000
27.9881	205.0000
27.9974	192.0000
28.0066	197.0000
28.0158	205.0000
28.0250	203.0000
28.0342	192.0000
28.0435	205.0000
28.0527	213.0000
28.0619	193.0000
28.0711	223.0000
28.0804	197.0000
28.0896	205.0000
28.0988	207.0000
28.1080	210.0000
28.1172	210.0000
28.1265	189.0000
28.1357	170.0000
28.1449	211.0000
28.1541	197.0000
28.1634	206.0000
28.1726	176.0000
28.1818	196.0000
28.1910	207.0000
28.2003	210.0000
28.2095	229.0000
28.2187	217.0000
28.2279	199.0000
28.2371	203.0000
28.2464	217.0000
28.2556	193.0000
28.2648	181.0000
28.2740	209.0000
28.2833	200.0000
28.2925	189.0000
28.3017	196.0000
28.3109	204.0000
28.3201	174.0000
28.3294	216.0000
28.3386	225.0000
28.3478	212.0000
28.3570	186.0000
28.3663	209.0000
28.3755	202.0000
28.3847	212.0000
28.3939	194.0000
28.4032	210.0000
28.4124	223.0000
28.4216	216.0000
28.4308	200.0000
28.4400	176.0000
28.4493	217.0000
28.4585	198.0000
28.4677	214.0000
28.4769	203.0000
28.4862	177.0000
28.4954	213.0000
28.5046	203.0000
28.5138	230.0000
28.5230	204.0000
28.5323	175.0000
28.5415	193.0000
28.5507	210.0000
28.5599	196.0000
28.5692	198.0000
28.5784	202.0000
28.5876	183.0000
28.5968	195.0000
28.6061	221.0000
28.6153	182.0000
28.6245	207.0000
28.6337	199.0000
28.6429	200.0000
28.6522	216.0000
28.6614	185.0000
28.6706	201.0000
28.6798	171.0000
28.6891	204.0000
28.6983	206.0000
28.7075	237.0000
28.7167	186.0000
28.7259	178.0000
28.7352	208.0000
28.7444	200.0000
28.7536	210.0000
28.7628	205.0000
28.7721	198.0000
28.7813	198.0000
28.7905	190.0000
28.7997	203.0000
28.8089	181.0000
28.8182	209.0000
28.8274	192.0000
28.8366	204.0000
28.8458	208.0000
28.8551	215.0000
28.8643	234.0000
28.8735	218.0000
28.8827	191.0000
28.8920	208.0000
28.9012	198.0000
28.9104	222.0000
28.9196	205.0000
28.9288	213.0000
28.9381	198.0000
28.9473	220.0000
28.9565	208.0000
28.9657	216.0000
28.9750	208.0000
28.9842	186.0000
28.9934	209.0000
29.0026	210.0000
29.0118	185.0000
29.0211	203.0000
29.0303	203.0000
29.0395	204.0000
29.0487	198.0000
29.0580	200.0000
29.0672	163.0000
29.0764	189.0000
29.0856	214.0000
29.0949	215.0000
29.1041	208.0000
29.1133	205.0000
29.1225	200.0000
29.1317	203.0000
29.1410	204.0000
29.1502	211.0000
29.1594	195.0000
29.1686	196.0000
29.1779	232.0000
29.1871	177.0000
29.1963	212.0000
29.2055	176.0000
29.2147	215.0000
29.2240	188.0000
29.2332	176.0000
29.2424	215.0000
29.2516	203.0000
29.2609	221.0000
29.2701	202.0000
29.2793	213.0000
29.2885	190.0000
29.2977	199.0000
29.3070	207.0000
29.3162	199.0000
29.3254	196.0000
29.3346	192.0000
29.3439	219.0000
29.3531	204.0000
29.3623	212.0000
29.3715	203.0000
29.3808	212.0000
29.3900	186.0000
29.3992	220.0000
29.4084	180.0000
29.4176	197.0000
29.4269	213.0000
29.4361	190.0000
29.4453	204.0000
29.4545	198.0000
29.4638	210.0000
29.4730	181.0000
29.4822	194.0000
29.4914	173.0000
29.5006	217.0000
29.5099	206.0000
29.5191	209.0000
29.5283	211.0000
29.5375	178.0000
29.5468	220.0000
29.5560	192.0000
29.5652	209.0000
29.5744	193.0000
29.5837	207.0000
29.5929	219.0000
29.6021	180.0000
29.6113	188.0000
29.6205	207.0000
29.6298	201.0000
29.6390	205.0000
29.6482	208.0000
29.6574	172.0000
29.6667	186.0000
29.6759	213.0000
29.6851	221.0000
29.6943	192.0000
29.7035	192.0000
29.7128	215.0000
29.7220	211.0000
29.7312	207.0000
29.7404	207.0000
29.7497	230.0000
29.7589	181.0000
29.7681	210.0000
29.7773	183.0000
29.7866	189.0000
29.7958	189.0000
29.8050	234.0000
29.8142	218.0000
29.8234	194.0000
29.8327	199.0000
29.8419	200.0000
29.8511	193.0000
29.8603	193.0000
29.8696	227.0000
29.8788	215.0000
29.8880	217.0000
29.8972	184.0000
29.9064	202.0000
29.9157	189.0000
29.9249	205.0000
29.9341	194.0000
29.9433	231.0000
29.9526	193.0000
29.9618	208.0000
29.9710	199.0000
29.9802	206.0000
29.9894	205.0000
29.9987	204.0000
30.0079	192.0000
30.0171	194.0000
30.0263	192.0000
30.0356	194.0000
30.0448	205.0000
30.0540	203.0000
30.0632	179.0000
30.0725	171.0000
30.0817	199.0000
30.0909	209.0000
30.1001	185.0000
30.1093	200.0000
30.1186	198.0000
30.1278	212.0000
30.1370	202.0000
30.1462	219.0000
30.1555	186.0000
30.1647	189.0000
30.1739	205.0000
30.1831	202.0000
30.1923	198.0000
30.2016	217.0000
30.2108	214.0000
30.2200	196.0000
30.2292	192.0000
30.2385	224.0000
30.2477	175.0000
30.2569	199.0000
30.2661	196.0000
30.2754	226.0000
30.2846	208.0000
30.2938	205.0000
30.3030	203.0000
30.3122	202.0000
30.3215	193.0000
30.3307	213.0000
30.3399	204.0000
30.3491	196.0000
30.3584	209.0000
30.3676	200.0000
30.3768	197.0000
30.3860	222.0000
30.3952	207.0000
30.4045	203.0000
30.4137	192.0000
30.4229	208.0000
30.4321	196.0000
30.4414	201.0000
30.4506	229.0000
30.4598	178.0000
30.4690	217.0000
30.4782	199.0000
30.4875	200.0000
30.4967	202.0000
30.5059	203.0000
30.5151	204.0000
30.5244	189.0000
30.5336	177.0000
30.5428	189.0000
30.5520	219.0000
30.5613	202.0000
30.5705	217.0000
30.5797	198.0000
30.5889	188.0000
30.5981	187.0000
30.6074	169.0000
30.6166	191.0000
30.6258	182.0000
30.6350	195.0000
30.6443	189.0000
30.6535	192.0000
30.6627	176.0000
30.6719	173.0000
30.6811	200.0000
30.6904	172.0000
30.6996	188.0000
30.7088	199.0000
30.7180	209.0000
30.7273	222.0000
30.7365	200.0000
30.7457	184.0000
30.7549	210.0000
30.7642	173.0000
30.7734	205.0000
30.7826	230.0000
30.7918	210.0000
30.8010	190.0000
30.8103	181.0000
30.8195	200.0000
30.8287	231.0000
30.8379	218.0000
30.8472	223.0000
30.8564	195.0000
30.8656	200.0000
30.8748	206.0000
30.8840	191.0000
30.8933	196.0000
30.9025	187.0000
30.9117	221.0000
30.9209	167.0000
30.9302	202.0000
30.9394	197.0000
30.9486	217.0000
30.9578	178.0000
30.9671	187.0000
30.9763	187.0000
30.9855	213.0000
30.9947	197.0000
31.0039	185.0000
31.0132	195.0000
31.0224	218.0000
31.0316	190.0000
31.0408	235.0000
31.0501	198.0000
31.0593	191.0000
31.0685	202.0000
31.0777	188.0000
31.0869	212.0000
31.0962	196.0000
31.1054	223.0000
31.1146	208.0000
31.1238	200.0000
31.1331	213.0000
31.1423	203.0000
31.1515	193.0000
31.1607	194.0000
31.1699	201.0000
31.1792	197.0000
31.1884	192.0000
31.1976	189.0000
31.2068	196.0000
31.2161	185.0000
31.2253	214.0000
31.2345	208.0000
31.2437	212.0000
31.2530	223.0000
31.2622	179.0000
31.2714	188.0000
31.2806	186.0000
31.2898	221.0000
31.2991	194.0000
31.3083	202.0000
31.3175	196.0000
31.3267	204.0000
31.3360	207.0000
31.3452	178.0000
31.3544	198.0000
31.3636	205.0000
31.3728	236.0000
31.3821	206.0000
31.3913	185.0000
31.4005	195.0000
31.4097	212.0000
31.4190	189.0000
31.4282	209.0000
31.4374	186.0000
31.4466	201.0000
31.4559	225.0000
31.4651	183.0000
31.4743	202.0000
31.4835	191.0000
31.4927	196.0000
31.5020	207.0000
31.5112	195.0000
31.5204	186.0000
31.5296	199.0000
31.5389	189.0000
31.5481	210.0000
31.5573	216.0000
31.5665	192.0000
31.5757	212.0000
31.5850	173.0000
31.5942	205.0000
31.6034	197.0000
31.6126	219.0000
31.6219	200.0000
31.6311	203.0000
31.6403	197.0000
31.6495	219.0000
31.6587	173.0000
31.6680	209.0000
31.6772	187.0000
31.6864	184.0000
31.6956	177.0000
31.7049	205.0000
31.7141	207.0000
31.7233	190.0000
31.7325	210.0000
31.7418	190.0000
31.7510	214.0000
31.7602	214.0000
31.7694	201.0000
31.7786	188.0000
31.7879	189.0000
31.7971	207.0000
31.8063	178.0000
31.8155	193.0000
31.8248	192.0000
31.8340	194.0000
31.8432	210.0000
31.8524	171.0000
31.8616	170.0000
31.8709	191.0000
31.8801	198.0000
31.8893	209.0000
31.8985	215.0000
31.9078	205.0000
31.9170	191.0000
31.9262	220.0000
31.9354	198.0000
31.9447	184.0000
31.9539	196.0000
31.9631	188.0000
31.9723	189.0000
31.9815	200.0000
31.9908	207.0000
32.0000	207.0000
32.0092	220.0000
32.0184	210.0000
32.0277	207.0000
32.0369	188.0000
32.0461	205.0000
32.0553	210.0000
32.0645	189.0000
32.0738	179.0000
32.0830	223.0000
32.0922	201.0000
32.1014	197.0000
32.1107	199.0000
32.1199	210.0000
32.1291	231.0000
32.1383	206.0000
32.1476	210.0000
32.1568	202.0000
32.1660	176.0000
32.1752	207.0000
32.1844	187.0000
32.1937	208.0000
32.2029	205.0000
32.2121	184.0000
32.2213	197.0000
32.2306	190.0000
32.2398	173.0000
32.2490	187.0000
32.2582	202.0000
32.2674	228.0000
32.2767	222.0000
32.2859	202.0000
32.2951	212.0000
32.3043	173.0000
32.3136	213.0000
32.3228	186.0000
32.3320	183.0000
32.3412	186.0000
32.3504	197.0000
32.3597	203.0000
32.3689	188.0000
32.3781	211.0000
32.3873	186.0000
32.3966	207.0000
32.4058	178.0000
32.4150	206.0000
32.4242	207.0000
32.4335	207.0000
32.4427	177.0000
32.4519	211.0000
32.4611	185.0000
32.4703	172.0000
32.4796	187.0000
32.4888	196.0000
32.4980	211.0000
32.5072	189.0000
32.5165	204.0000
32.5257	210.0000
32.5349	207.0000
32.5441	228.0000
32.5533	211.0000
32.5626	211.0000
32.5718	187.0000
32.5810	203.0000
32.5902	187.0000
32.5995	190.0000
32.6087	181.0000
32.6179	195.0000
32.6271	227.0000
32.6364	220.0000
32.6456	203.0000
32.6548	195.0000
32.6640	196.0000
32.6732	241.0000
32.6825	203.0000
32.6917	190.0000
32.7009	198.0000
32.7101	183.0000
32.7194	181.0000
32.7286	189.0000
32.7378	230.0000
32.7470	213.0000
32.7562	215.0000
32.7655	191.0000
32.7747	175.0000
32.7839	195.0000
32.7931	180.0000
32.8024	235.0000
32.8116	215.0000
32.8208	206.0000
32.8300	181.0000
32.8392	206.0000
32.8485	208.0000
32.8577	194.0000
32.8669	211.0000
32.8761	202.0000
32.8854	181.0000
32.8946	200.0000
32.9038	176.0000
32.9130	167.0000
32.9223	193.0000
32.9315	186.0000
32.9407	171.0000
32.9499	205.0000
32.9591	190.0000
32.9684	200.0000
32.9776	229.0000
32.9868	198.0000
32.9960	211.0000
33.0053	218.0000
33.0145	178.0000
33.0237	222.0000
33.0329	205.0000
33.0421	220.0000
33.0514	203.0000
33.0606	220.0000
33.0698	224.0000
33.0790	219.0000
33.0883	227.0000
33.0975	233.0000
33.1067	247.0000
33.1159	233.0000
33.1252	221.0000
33.1344	243.0000
33.1436	214.0000
33.1528	231.0000
33.1620	219.0000
33.1713	195.0000
33.1805	176.0000
33.1897	229.0000
33.1989	197.0000
33.2082	215.0000
33.2174	208.0000
33.2266	206.0000
33.2358	215.0000
33.2450	207.0000
33.2543	191.0000
33.2635	205.0000
33.2727	212.0000
33.2819	217.0000
33.2912	229.0000
33.3004	220.0000
33.3096	198.0000
33.3188	210.0000
33.3281	243.0000
33.3373	181.0000
33.3465	192.0000
33.3557	205.0000
33.3649	219.0000
33.3742	176.0000
33.3834	216.0000
33.3926	196.0000
33.4018	215.0000
33.4111	185.0000
33.4203	185.0000
33.4295	194.0000
33.4387	198.0000
33.4479	220.0000
33.4572	207.0000
33.4664	204.0000
33.4756	197.0000
33.4848	191.0000
33.4941	210.0000
33.5033	187.0000
33.5125	180.0000
33.5217	198.0000
33.5309	212.0000
33.5402	183.0000
33.5494	186.0000
33.5586	181.0000
33.5678	205.0000
33.5771	184.0000
33.5863	203.0000
33.5955	163.0000
33.6047	195.0000
33.6140	209.0000
33.6232	183.0000
33.6324	210.0000
33.6416	200.0000
33.6508	214.0000
33.6601	175.0000
33.6693	201.0000
33.6785	197.0000
33.6877	185.0000
33.6970	207.0000
33.7062	186.0000
33.7154	178.0000
33.7246	211.0000
33.7338	216.0000
33.7431	194.0000
33.7523	181.0000
33.7615	186.0000
33.7707	186.0000
33.7800	172.0000
33.7892	197.0000
33.7984	197.0000
33.8076	190.0000
33.8169	178.0000
33.8261	181.0000
33.8353	143.0000
33.8445	180.0000
33.8537	203.0000
33.8630	198.0000
33.8722	190.0000
33.8814	185.0000
33.8906	183.0000
33.8999	194.0000
33.9091	212.0000
33.9183	198.0000
33.9275	161.0000
33.9367	197.0000
33.9460	193.0000
33.9552	207.0000
33.9644	189.0000
33.9736	207.0000
33.9829	207.0000
33.9921	192.0000
34.0013	186.0000
34.0105	202.0000
34.0197	201.0000
34.0290	205.0000
34.0382	183.0000
34.0474	184.0000
34.0566	186.0000
34.0659	204.0000
34.0751	176.0000
34.0843	175.0000
34.0935	195.0000
34.1028	190.0000
34.1120	182.0000
34.1212	189.0000
34.1304	176.0000
34.1396	193.0000
34.1489	197.0000
34.1581	190.0000
34.1673	195.0000
34.1765	182.0000
34.1858	192.0000
34.1950	183.0000
34.2042	190.0000
34.2134	192.0000
34.2226	196.0000
34.2319	211.0000
34.2411	190.0000
34.2503	187.0000
34.2595	200.0000
34.2688	208.0000
34.2780	176.0000
34.2872	197.0000
34.2964	200.0000
34.3057	200.0000
34.3149	194.0000
34.3241	182.0000
34.3333	170.0000
34.3425	172.0000
34.3518	183.0000
34.3610	195.0000
34.3702	178.0000
34.3794	182.0000
34.3887	178.0000
34.3979	185.0000
34.4071	211.0000
34.4163	179.0000
34.4255	195.0000
34.4348	183.0000
34.4440	168.0000
34.4532	183.0000
34.4624	197.0000
34.4717	186.0000
34.4809	183.0000
34.4901	181.0000
34.4993	176.0000
34.5086	160.0000
34.5178	185.0000
34.5270	146.0000
34.5362	181.0000
34.5454	176.0000
34.5547	185.0000
34.5639	179.0000
34.5731	190.0000
34.5823	183.0000
34.5916	190.0000
34.6008	168.0000
34.6100	196.0000
34.6192	161.0000
34.6284	183.0000
34.6377	184.0000
34.6469	214.0000
34.6561	175.0000
34.6653	195.0000
34.6746	171.0000
34.6838	182.0000
34.6930	176.0000
34.7022	158.0000
34.7114	169.0000
34.7207	177.0000
34.7299	168.0000
34.7391	180.0000
34.7483	186.0000
34.7576	203.0000
34.7668	176.0000
34.7760	198.0000
34.7852	178.0000
34.7945	171.0000
34.8037	174.0000
34.8129	174.0000
34.8221	193.0000
34.8313	157.0000
34.8406	171.0000
34.8498	188.0000
34.8590	166.0000
34.8682	174.0000
34.8775	156.0000
34.8867	174.0000
34.8959	193.0000
34.9051	161.0000
34.9143	189.0000
34.9236	159.0000
34.9328	197.0000
34.9420	147.0000
34.9512	158.0000
34.9605	193.0000
34.9697	169.0000
34.9789	185.0000
34.9881	170.0000
34.9974	181.0000
35.0066	169.0000
35.0158	161.0000
35.0250	188.0000
35.0342	164.0000
35.0435	146.0000
35.0527	193.0000
35.0619	190.0000
35.0711	189.0000
35.0804	151.0000
35.0896	158.0000
35.0988	177.0000
35.1080	181.0000
35.1172	154.0000
35.1265	182.0000
35.1357	163.0000
35.1449	161.0000
35.1541	180.0000
35.1634	154.0000
35.1726	172.0000
35.1818	168.0000
35.1910	176.0000
35.2002	157.0000
35.2095	160.0000
35.2187	177.0000
35.2279	178.0000
35.2371	169.0000
35.2464	194.0000
35.2556	151.0000
35.2648	164.0000
35.2740	149.0000
35.2833	170.0000
35.2925	167.0000
35.3017	161.0000
35.3109	162.0000
35.3201	181.0000
35.3294	170.0000
35.3386	177.0000
35.3478	162.0000
35.3570	170.0000
35.3663	165.0000
35.3755	157.0000
35.3847	170.0000
35.3939	166.0000
35.4031	161.0000
35.4124	151.0000
35.4216	173.0000
35.4308	136.0000
35.4400	151.0000
35.4493	170.0000
35.4585	131.0000
35.4677	172.0000
35.4769	153.0000
35.4862	177.0000
35.4954	167.0000
35.5046	174.0000
35.5138	146.0000
35.5230	153.0000
35.5323	155.0000
35.5415	155.0000
35.5507	135.0000
35.5599	149.0000
35.5692	145.0000
35.5784	148.0000
35.5876	167.0000
35.5968	163.0000
35.6060	152.0000
35.6153	167.0000
35.6245	138.0000
35.6337	139.0000
35.6429	146.0000
35.6522	150.0000
35.6614	178.0000
35.6706	141.0000
35.6798	169.0000
35.6891	166.0000
35.6983	155.0000
35.7075	152.0000
35.7167	157.0000
35.7259	133.0000
35.7352	146.0000
35.7444	142.0000
35.7536	134.0000
35.7628	148.0000
35.7721	172.0000
35.7813	159.0000
35.7905	152.0000
35.7997	152.0000
35.8089	160.0000
35.8182	141.0000
35.8274	156.0000
35.8366	144.0000
35.8458	134.0000
35.8551	144.0000
35.8643	166.0000
35.8735	131.0000
35.8827	167.0000
35.8919	153.0000
35.9012	144.0000
35.9104	155.0000
35.9196	162.0000
35.9288	153.0000
35.9381	157.0000
35.9473	129.0000
35.9565	145.0000
35.9657	149.0000
35.9750	153.0000
35.9842	128.0000
35.9934	148.0000
36.0026	151.0000
36.0118	151.0000
36.0211	138.0000
36.0303	130.0000
36.0395	132.0000
36.0487	137.0000
36.0580	153.0000
36.0672	148.0000
36.0764	130.0000
36.0856	120.0000
36.0948	145.0000
36.1041	150.0000
36.1133	155.0000
36.1225	134.0000
36.1317	153.0000
36.1410	150.0000
36.1502	118.0000
36.1594	141.0000
36.1686	139.0000
36.1779	120.0000
36.1871	139.0000
36.1963	132.0000
36.2055	130.0000
36.2147	136.0000
36.2240	134.0000
36.2332	149.0000
36.2424	143.0000
36.2516	149.0000
36.2609	126.0000
36.2701	141.0000
36.2793	135.0000
36.2885	139.0000
36.2977	144.0000
36.3070	148.0000
36.3162	132.0000
36.3254	138.0000
36.3346	150.0000
36.3439	127.0000
36.3531	169.0000
36.3623	136.0000
36.3715	133.0000
36.3807	136.0000
36.3900	128.0000
36.3992	119.0000
36.4084	110.0000
36.4176	141.0000
36.4269	122.0000
36.4361	140.0000
36.4453	141.0000
36.4545	133.0000
36.4638	136.0000
36.4730	112.0000
36.4822	140.0000
36.4914	132.0000
36.5006	145.0000
36.5099	145.0000
36.5191	139.0000
36.5283	131.0000
36.5375	113.0000
36.5468	134.0000
36.5560	143.0000
36.5652	120.0000
36.5744	133.0000
36.5836	137.0000
36.5929	130.0000
36.6021	123.0000
36.6113	123.0000
36.6205	141.0000
36.6298	121.0000
36.6390	119.0000
36.6482	138.0000
36.6574	133.0000
36.6667	123.0000
36.6759	144.0000
36.6851	131.0000
36.6943	161.0000
36.7035	116.0000
36.7128	117.0000
36.7220	113.0000
36.7312	142.0000
36.7404	140.0000
36.7497	141.0000
36.7589	134.0000
36.7681	151.0000
36.7773	143.0000
36.7865	119.0000
36.7958	122.0000
36.8050	127.0000
36.8142	133.0000
36.8234	140.0000
36.8327	130.0000
36.8419	119.0000
36.8511	125.0000
36.8603	146.0000
36.8696	143.0000
36.8788	116.0000
36.8880	136.0000
36.8972	113.0000
36.9064	129.0000
36.9157	127.0000
36.9249	119.0000
36.9341	136.0000
36.9433	115.0000
36.9526	130.0000
36.9618	141.0000
36.9710	127.0000
36.9802	101.0000
36.9894	121.0000
36.9987	131.0000
37.0079	126.0000
37.0171	142.0000
37.0263	111.0000
37.0356	117.0000
37.0448	133.0000
37.0540	129.0000
37.0632	109.0000
37.0724	148.0000
37.0817	127.0000
37.0909	115.0000
37.1001	125.0000
37.1093	126.0000
37.1186	134.0000
37.1278	125.0000
37.1370	117.0000
37.1462	114.0000
37.1555	129.0000
37.1647	122.0000
37.1739	115.0000
37.1831	121.0000
37.1923	126.0000
37.2016	108.0000
37.2108	121.0000
37.2200	115.0000
37.2292	116.0000
37.2385	109.0000
37.2477	123.0000
37.2569	129.0000
37.2661	123.0000
37.2753	125.0000
37.2846	146.0000
37.2938	138.0000
37.3030	161.0000
37.3122	137.0000
37.3215	166.0000
37.3307	172.0000
37.3399	167.0000
37.3491	156.0000
37.3584	136.0000
37.3676	133.0000
37.3768	129.0000
37.3860	150.0000
37.3952	114.0000
37.4045	110.0000
37.4137	92.0000
37.4229	103.0000
37.4321	115.0000
37.4414	128.0000
37.4506	127.0000
37.4598	124.0000
37.4690	110.0000
37.4782	120.0000
37.4875	117.0000
37.4967	124.0000
37.5059	116.0000
37.5151	125.0000
37.5244	127.0000
37.5336	132.0000
37.5428	151.0000
37.5520	129.0000
37.5612	119.0000
37.5705	144.0000
37.5797	127.0000
37.5889	144.0000
37.5981	130.0000
37.6074	121.0000
37.6166	113.0000
37.6258	129.0000
37.6350	116.0000
37.6443	123.0000
37.6535	118.0000
37.6627	99.0000
37.6719	98.0000
37.6811	124.0000
37.6904	108.0000
37.6996	116.0000
37.7088	110.0000
37.7180	108.0000
37.7273	123.0000
37.7365	105.0000
37.7457	109.0000
37.7549	114.0000
37.7641	117.0000
37.7734	109.0000
37.7826	128.0000
37.7918	107.0000
37.8010	117.0000
37.8103	97.0000
37.8195	118.0000
37.8287	123.0000
37.8379	111.0000
37.8472	123.0000
37.8564	114.0000
37.8656	104.0000
37.8748	104.0000
37.8840	132.0000
37.8933	120.0000
37.9025	113.0000
37.9117	109.0000
37.9209	106.0000
37.9302	119.0000
37.9394	116.0000
37.9486	119.0000
37.9578	101.0000
37.9670	97.0000
37.9763	94.0000
37.9855	115.0000
37.9947	120.0000
38.0039	98.0000
38.0132	103.0000
38.0224	110.0000
38.0316	123.0000
38.0408	121.0000
38.0501	108.0000
38.0593	110.0000
38.0685	109.0000
38.0777	114.0000
38.0869	113.0000
38.0962	108.0000
38.1054	116.0000
38.1146	103.0000
38.1238	102.0000
38.1331	101.0000
38.1423	99.0000
38.1515	127.0000
38.1607	121.0000
38.1699	93.0000
38.1792	102.0000
38.1884	102.0000
38.1976	110.0000
38.2068	112.0000
38.2161	118.0000
38.2253	103.0000
38.2345	104.0000
38.2437	90.0000
38.2529	108.0000
38.2622	100.0000
38.2714	116.0000
38.2806	120.0000
38.2898	114.0000
38.2991	108.0000
38.3083	123.0000
38.3175	111.0000
38.3267	107.0000
38.3360	101.0000
38.3452	100.0000
38.3544	109.0000
38.3636	78.0000
38.3728	109.0000
38.3821	103.0000
38.3913	117.0000
38.4005	119.0000
38.4097	114.0000
38.4190	139.0000
38.4282	115.0000
38.4374	108.0000
38.4466	113.0000
38.4558	103.0000
38.4651	112.0000
38.4743	96.0000
38.4835	109.0000
38.4927	104.0000
38.5020	108.0000
38.5112	115.0000
38.5204	103.0000
38.5296	96.0000
38.5389	124.0000
38.5481	93.0000
38.5573	98.0000
38.5665	104.0000
38.5757	132.0000
38.5850	107.0000
38.5942	124.0000
38.6034	114.0000
38.6126	92.0000
38.6219	99.0000
38.6311	112.0000
38.6403	89.0000
38.6495	91.0000
38.6587	112.0000
38.6680	93.0000
38.6772	102.0000
38.6864	110.0000
38.6956	121.0000
38.7049	91.0000
38.7141	103.0000
38.7233	105.0000
38.7325	104.0000
38.7417	112.0000
38.7510	103.0000
38.7602	90.0000
38.7694	106.0000
38.7786	97.0000
38.7879	79.0000
38.7971	79.0000
38.8063	124.0000
38.8155	99.0000
38.8248	97.0000
38.8340	119.0000
38.8432	120.0000
38.8524	91.0000
38.8616	89.0000
38.8709	114.0000
38.8801	96.0000
38.8893	91.0000
38.8985	103.0000
38.9078	83.0000
38.9170	104.0000
38.9262	98.0000
38.9354	129.0000
38.9446	106.0000
38.9539	96.0000
38.9631	95.0000
38.9723	82.0000
38.9815	103.0000
38.9908	96.0000
39.0000	103.0000
39.0092	103.0000
39.0184	90.0000
39.0277	100.0000
39.0369	119.0000
39.0461	94.0000
39.0553	120.0000
39.0645	106.0000
39.0738	103.0000
39.0830	109.0000
39.0922	109.0000
39.1014	87.0000
39.1107	112.0000
39.1199	118.0000
39.1291	98.0000
39.1383	99.0000
39.1475	106.0000
39.1568	107.0000
39.1660	103.0000
39.1752	100.0000
39.1844	108.0000
39.1937	117.0000
39.2029	108.0000
39.2121	90.0000
39.2213	109.0000
39.2306	108.0000
39.2398	102.0000
39.2490	112.0000
39.2582	118.0000
39.2674	110.0000
39.2767	111.0000
39.2859	101.0000
39.2951	107.0000
39.3043	99.0000
39.3136	85.0000
39.3228	100.0000
39.3320	97.0000
39.3412	101.0000
39.3504	107.0000
39.3597	93.0000
39.3689	104.0000
39.3781	106.0000
39.3873	88.0000
39.3966	108.0000
39.4058	101.0000
39.4150	109.0000
39.4242	105.0000
39.4334	110.0000
39.4427	108.0000
39.4519	102.0000
39.4611	97.0000
39.4703	109.0000
39.4796	88.0000
39.4888	86.0000
39.4980	81.0000
39.5072	112.0000
39.5165	97.0000
39.5257	114.0000
39.5349	96.0000
39.5441	81.0000
39.5533	98.0000
39.5626	108.0000
39.5718	98.0000
39.5810	92.0000
39.5902	117.0000
39.5995	110.0000
39.6087	88.0000
39.6179	113.0000
39.6271	101.0000
39.6363	100.0000
39.6456	111.0000
39.6548	94.0000
39.6640	109.0000
39.6732	103.0000
39.6825	111.0000
39.6917	120.0000
39.7009	131.0000
39.7101	102.0000
39.7194	99.0000
39.7286	113.0000
39.7378	111.0000
39.7470	112.0000
39.7562	93.0000
39.7655	107.0000
39.7747	107.0000
39.7839	107.0000
39.7931	106.0000
39.8024	109.0000
39.8116	108.0000
39.8208	108.0000
39.8300	96.0000
39.8392	103.0000
39.8485	95.0000
39.8577	114.0000
39.8669	92.0000
39.8761	94.0000
39.8854	101.0000
39.8946	102.0000
39.9038	94.0000
39.9130	101.0000
39.9222	122.0000
39.9315	123.0000
39.9407	99.0000
39.9499	124.0000
39.9591	119.0000
39.9684	93.0000
39.9776	120.0000
39.9868	104.0000
39.9960	88.0000
40.0053	114.0000
40.0145	101.0000
40.0237	94.0000
40.0329	107.0000
40.0421	99.0000
40.0514	97.0000
40.0606	92.0000
40.0698	117.0000
40.0790	83.0000
40.0883	77.0000
40.0975	87.0000
40.1067	98.0000
40.1159	108.0000
40.1251	108.0000
40.1344	99.0000
40.1436	103.0000
40.1528	100.0000
40.1620	98.0000
40.1713	93.0000
40.1805	101.0000
40.1897	103.0000
40.1989	108.0000
40.2082	89.0000
40.2174	113.0000
40.2266	104.0000
40.2358	116.0000
40.2450	113.0000
40.2543	101.0000
40.2635	92.0000
40.2727	123.0000
40.2819	114.0000
40.2912	105.0000
40.3004	107.0000
40.3096	95.0000
40.3188	105.0000
40.3280	101.0000
40.3373	92.0000
40.3465	88.0000
40.3557	81.0000
40.3649	111.0000
40.3742	97.0000
40.3834	89.0000
40.3926	94.0000
40.4018	99.0000
40.4111	91.0000
40.4203	118.0000
40.4295	93.0000
40.4387	82.0000
40.4479	101.0000
40.4572	97.0000
40.4664	76.0000
40.4756	104.0000
40.4848	92.0000
40.4941	92.0000
40.5033	105.0000
40.5125	80.0000
40.5217	83.0000
40.5309	102.0000
40.5402	93.0000
40.5494	95.0000
40.5586	102.0000
40.5678	94.0000
40.5771	104.0000
40.5863	100.0000
40.5955	104.0000
40.6047	96.0000
40.6139	112.0000
40.6232	108.0000
40.6324	107.0000
40.6416	107.0000
40.6508	84.0000
40.6601	98.0000
40.6693	102.0000
40.6785	115.0000
40.6877	101.0000
40.6970	116.0000
40.7062	96.0000
40.7154	93.0000
40.7246	97.0000
40.7338	102.0000
40.7431	115.0000
40.7523	93.0000
40.7615	95.0000
40.7707	84.0000
40.7800	91.0000
40.7892	115.0000
40.7984	119.0000
40.8076	93.0000
40.8168	99.0000
40.8261	100.0000
40.8353	96.0000
40.8445	97.0000
40.8537	110.0000
40.8630	89.0000
40.8722	85.0000
40.8814	77.0000
40.8906	116.0000
40.8999	85.0000
40.9091	87.0000
40.9183	91.0000
40.9275	87.0000
40.9367	111.0000
40.9460	104.0000
40.9552	103.0000
40.9644	88.0000
40.9736	103.0000
40.9829	89.0000
40.9921	102.0000
41.0013	118.0000
41.0105	107.0000
41.0197	96.0000
41.0290	94.0000
41.0382	102.0000
41.0474	101.0000
41.0566	80.0000
41.0659	92.0000
41.0751	103.0000
41.0843	88.0000
41.0935	107.0000
41.1027	97.0000
41.1120	95.0000
41.1212	107.0000
41.1304	104.0000
41.1396	115.0000
41.1489	102.0000
41.1581	111.0000
41.1673	97.0000
41.1765	111.0000
41.1858	87.0000
41.1950	104.0000
41.2042	97.0000
41.2134	109.0000
41.2226	91.0000
41.2319	95.0000
41.2411	111.0000
41.2503	96.0000
41.2595	110.0000
41.2688	93.0000
41.2780	95.0000
41.2872	108.0000
41.2964	95.0000
41.3056	121.0000
41.3149	105.0000
41.3241	102.0000
41.3333	112.0000
41.3425	100.0000
41.3518	103.0000
41.3610	93.0000
41.3702	99.0000
41.3794	105.0000
41.3887	99.0000
41.3979	110.0000
41.4071	92.0000
41.4163	109.0000
41.4255	88.0000
41.4348	106.0000
41.4440	95.0000
41.4532	109.0000
41.4624	108.0000
41.4717	106.0000
41.4809	103.0000
41.4901	103.0000
41.4993	98.0000
41.5085	105.0000
41.5178	80.0000
41.5270	95.0000
41.5362	92.0000
41.5454	108.0000
41.5547	97.0000
41.5639	99.0000
41.5731	106.0000
41.5823	116.0000
41.5915	92.0000
41.6008	105.0000
41.6100	100.0000
41.6192	96.0000
41.6284	101.0000
41.6377	107.0000
41.6469	107.0000
41.6561	103.0000
41.6653	85.0000
41.6746	89.0000
41.6838	88.0000
41.6930	99.0000
41.7022	105.0000
41.7114	98.0000
41.7207	104.0000
41.7299	94.0000
41.7391	93.0000
41.7483	97.0000
41.7576	111.0000
41.7668	104.0000
41.7760	95.0000
41.7852	96.0000
41.7944	76.0000
41.8037	98.0000
41.8129	96.0000
41.8221	99.0000
41.8313	113.0000
41.8406	99.0000
41.8498	91.0000
41.8590	109.0000
41.8682	93.0000
41.8775	92.0000
41.8867	92.0000
41.8959	120.0000
41.9051	99.0000
41.9143	85.0000
41.9236	89.0000
41.9328	116.0000
41.9420	98.0000
41.9512	98.0000
41.9605	113.0000
41.9697	82.0000
41.9789	102.0000
41.9881	101.0000
41.9973	93.0000
42.0066	84.0000
42.0158	108.0000
42.0250	105.0000
42.0342	94.0000
42.0435	93.0000
42.0527	107.0000
42.0619	95.0000
42.0711	104.0000
42.0804	104.0000
42.0896	107.0000
42.0988	103.0000
42.1080	93.0000
42.1172	74.0000
42.1265	106.0000
42.1357	99.0000
42.1449	99.0000
42.1541	88.0000
42.1634	106.0000
42.1726	102.0000
42.1818	90.0000
42.1910	89.0000
42.2002	92.0000
42.2095	90.0000
42.2187	89.0000
42.2279	87.0000
42.2371	94.0000
42.2464	112.0000
42.2556	113.0000
42.2648	123.0000
42.2740	98.0000
42.2832	101.0000
42.2925	98.0000
42.3017	105.0000
42.3109	91.0000
42.3201	106.0000
42.3294	103.0000
42.3386	118.0000
42.3478	101.0000
42.3570	111.0000
42.3663	115.0000
42.3755	87.0000
42.3847	97.0000
42.3939	95.0000
42.4031	105.0000
42.4124	94.0000
42.4216	94.0000
42.4308	108.0000
42.4400	89.0000
42.4493	89.0000
42.4585	88.0000
42.4677	62.0000
42.4769	102.0000
42.4861	107.0000
42.4954	117.0000
42.5046	80.0000
42.5138	95.0000
42.5230	99.0000
42.5323	101.0000
42.5415	102.0000
42.5507	76.0000
42.5599	117.0000
42.5692	98.0000
42.5784	98.0000
42.5876	80.0000
42.5968	85.0000
42.6060	119.0000
42.6153	91.0000
42.6245	92.0000
42.6337	101.0000
42.6429	108.0000
42.6522	108.0000
42.6614	89.0000
42.6706	90.0000
42.6798	107.0000
42.6890	119.0000
42.6983	96.0000
42.7075	103.0000
42.7167	97.0000
42.7259	107.0000
42.7352	85.0000
42.7444	101.0000
42.7536	108.0000
42.7628	110.0000
42.7720	90.0000
42.7813	102.0000
42.7905	101.0000
42.7997	80.0000
42.8089	107.0000
42.8182	106.0000
42.8274	98.0000
42.8366	90.0000
42.8458	105.0000
42.8551	104.0000
42.8643	101.0000
42.8735	91.0000
42.8827	106.0000
42.8919	99.0000
42.9012	127.0000
42.9104	110.0000
42.9196	93.0000
42.9288	98.0000
42.9381	103.0000
42.9473	101.0000
42.9565	89.0000
42.9657	99.0000
42.9749	107.0000
42.9842	114.0000
42.9934	114.0000
43.0026	98.0000
43.0118	115.0000
43.0211	107.0000
43.0303	99.0000
43.0395	99.0000
43.0487	102.0000
43.0580	84.0000
43.0672	91.0000
43.0764	83.0000
43.0856	104.0000
43.0948	110.0000
43.1041	97.0000
43.1133	98.0000
43.1225	93.0000
43.1317	87.0000
43.1410	89.0000
43.1502	103.0000
43.1594	94.0000
43.1686	91.0000
43.1778	107.0000
43.1871	94.0000
43.1963	88.0000
43.2055	81.0000
43.2147	85.0000
43.2240	102.0000
43.2332	85.0000
43.2424	94.0000
43.2516	90.0000
43.2609	100.0000
43.2701	108.0000
43.2793	98.0000
43.2885	89.0000
43.2977	94.0000
43.3070	114.0000
43.3162	98.0000
43.3254	107.0000
43.3346	88.0000
43.3439	134.0000
43.3531	102.0000
43.3623	116.0000
43.3715	126.0000
43.3807	128.0000
43.3900	138.0000
43.3992	147.0000
43.4084	142.0000
43.4176	141.0000
43.4269	120.0000
43.4361	101.0000
43.4453	109.0000
43.4545	93.0000
43.4637	82.0000
43.4730	98.0000
43.4822	95.0000
43.4914	98.0000
43.5006	103.0000
43.5099	85.0000
43.5191	108.0000
43.5283	89.0000
43.5375	104.0000
43.5468	107.0000
43.5560	102.0000
43.5652	91.0000
43.5744	100.0000
43.5836	103.0000
43.5929	96.0000
43.6021	123.0000
43.6113	121.0000
43.6205	97.0000
43.6298	102.0000
43.6390	112.0000
43.6482	103.0000
43.6574	131.0000
43.6666	134.0000
43.6759	114.0000
43.6851	110.0000
43.6943	130.0000
43.7035	86.0000
43.7128	93.0000
43.7220	87.0000
43.7312	95.0000
43.7404	94.0000
43.7497	89.0000
43.7589	88.0000
43.7681	98.0000
43.7773	88.0000
43.7865	94.0000
43.7958	81.0000
43.8050	98.0000
43.8142	103.0000
43.8234	90.0000
43.8327	96.0000
43.8419	103.0000
43.8511	107.0000
43.8603	100.0000
43.8695	93.0000
43.8788	88.0000
43.8880	94.0000
43.8972	91.0000
43.9064	100.0000
43.9157	92.0000
43.9249	101.0000
43.9341	112.0000
43.9433	88.0000
43.9525	111.0000
43.9618	85.0000
43.9710	86.0000
43.9802	93.0000
43.9894	111.0000
43.9987	98.0000
44.0079	104.0000
44.0171	79.0000
44.0263	93.0000
44.0356	110.0000
44.0448	99.0000
44.0540	81.0000
44.0632	98.0000
44.0724	112.0000
44.0817	87.0000
44.0909	85.0000
44.1001	95.0000
44.1093	91.0000
44.1186	92.0000
44.1278	98.0000
44.1370	90.0000
44.1462	88.0000
44.1554	100.0000
44.1647	92.0000
44.1739	96.0000
44.1831	90.0000
44.1923	91.0000
44.2016	74.0000
44.2108	101.0000
44.2200	83.0000
44.2292	116.0000
44.2385	100.0000
44.2477	97.0000
44.2569	94.0000
44.2661	96.0000
44.2753	91.0000
44.2846	108.0000
44.2938	92.0000
44.3030	80.0000
44.3122	90.0000
44.3215	102.0000
44.3307	80.0000
44.3399	97.0000
44.3491	87.0000
44.3583	80.0000
44.3676	94.0000
44.3768	103.0000
44.3860	95.0000
44.3952	82.0000
44.4045	109.0000
44.4137	89.0000
44.4229	99.0000
44.4321	91.0000
44.4414	77.0000
44.4506	86.0000
44.4598	88.0000
44.4690	106.0000
44.4782	97.0000
44.4875	82.0000
44.4967	112.0000
44.5059	108.0000
44.5151	84.0000
44.5244	76.0000
44.5336	82.0000
44.5428	88.0000
44.5520	107.0000
44.5612	101.0000
44.5705	100.0000
44.5797	102.0000
44.5889	111.0000
44.5981	109.0000
44.6074	88.0000
44.6166	111.0000
44.6258	83.0000
44.6350	115.0000
44.6442	104.0000
44.6535	100.0000
44.6627	91.0000
44.6719	98.0000
44.6811	98.0000
44.6904	92.0000
44.6996	92.0000
44.7088	85.0000
44.7180	84.0000
44.7273	111.0000
44.7365	95.0000
44.7457	84.0000
44.7549	119.0000
44.7641	99.0000
44.7734	92.0000
44.7826	93.0000
44.7918	98.0000
44.8010	104.0000
44.8103	97.0000
44.8195	86.0000
44.8287	89.0000
44.8379	90.0000
44.8471	86.0000
44.8564	81.0000
44.8656	87.0000
44.8748	80.0000
44.8840	79.0000
44.8933	101.0000
44.9025	94.0000
44.9117	98.0000
44.9209	88.0000
44.9302	74.0000
44.9394	96.0000
44.9486	60.0000
44.9578	90.0000
44.9670	95.0000
44.9763	84.0000
44.9855	102.0000
44.9947	86.0000
45.0039	94.0000
45.0132	84.0000
45.0224	94.0000
45.0316	102.0000
45.0408	87.0000
45.0500	94.0000
45.0593	71.0000
45.0685	86.0000
45.0777	83.0000
45.0869	94.0000
45.0962	92.0000
45.1054	79.0000
45.1146	98.0000
45.1238	74.0000
45.1330	93.0000
45.1423	83.0000
45.1515	82.0000
45.1607	99.0000
45.1699	93.0000
45.1792	102.0000
45.1884	89.0000
45.1976	73.0000
45.2068	82.0000
45.2161	88.0000
45.2253	105.0000
45.2345	99.0000
45.2437	90.0000
45.2529	83.0000
45.2622	100.0000
45.2714	80.0000
45.2806	103.0000
45.2898	76.0000
45.2991	100.0000
45.3083	91.0000
45.3175	88.0000
45.3267	89.0000
45.3359	79.0000
45.3452	81.0000
45.3544	77.0000
45.3636	94.0000
45.3728	93.0000
45.3821	94.0000
45.3913	105.0000
45.4005	100.0000
45.4097	99.0000
45.4190	117.0000
45.4282	114.0000
45.4374	101.0000
45.4466	113.0000
45.4558	131.0000
45.4651	138.0000
45.4743	148.0000
45.4835	166.0000
45.4927	153.0000
45.5020	129.0000
45.5112	138.0000
45.5204	123.0000
45.5296	111.0000
45.5388	98.0000
45.5481	101.0000
45.5573	87.0000
45.5665	85.0000
45.5757	94.0000
45.5850	89.0000
45.5942	98.0000
45.6034	95.0000
45.6126	98.0000
45.6219	91.0000
45.6311	85.0000
45.6403	96.0000
45.6495	69.0000
45.6587	75.0000
45.6680	78.0000
45.6772	91.0000
45.6864	70.0000
45.6956	93.0000
45.7049	97.0000
45.7141	81.0000
45.7233	100.0000
45.7325	119.0000
45.7417	130.0000
45.7510	152.0000
45.7602	122.0000
45.7694	113.0000
45.7786	122.0000
45.7879	99.0000
45.7971	124.0000
45.8063	98.0000
45.8155	114.0000
45.8247	96.0000
45.8340	84.0000
45.8432	92.0000
45.8524	83.0000
45.8616	77.0000
45.8709	88.0000
45.8801	92.0000
45.8893	71.0000
45.8985	81.0000
45.9078	97.0000
45.9170	99.0000
45.9262	80.0000
45.9354	74.0000
45.9446	95.0000
45.9539	91.0000
45.9631	76.0000
45.9723	84.0000
45.9815	93.0000
45.9908	104.0000
46.0000	93.0000
46.0092	91.0000
46.0184	90.0000
46.0276	76.0000
46.0369	76.0000
46.0461	92.0000
46.0553	85.0000
46.0645	90.0000
46.0738	75.0000
46.0830	76.0000
46.0922	78.0000
46.1014	89.0000
46.1107	80.0000
46.1199	77.0000
46.1291	72.0000
46.1383	91.0000
46.1475	79.0000
46.1568	103.0000
46.1660	92.0000
46.1752	97.0000
46.1844	91.0000
46.1937	85.0000
46.2029	73.0000
46.2121	78.0000
46.2213	68.0000
46.2305	86.0000
46.2398	102.0000
46.2490	79.0000
46.2582	81.0000
46.2674	89.0000
46.2767	85.0000
46.2859	89.0000
46.2951	72.0000
46.3043	71.0000
46.3135	105.0000
46.3228	74.0000
46.3320	82.0000
46.3412	88.0000
46.3504	91.0000
46.3597	84.0000
46.3689	78.0000
46.3781	107.0000
46.3873	58.0000
46.3966	84.0000
46.4058	95.0000
46.4150	81.0000
46.4242	77.0000
46.4334	85.0000
46.4427	83.0000
46.4519	82.0000
46.4611	81.0000
46.4703	70.0000
46.4796	76.0000
46.4888	76.0000
46.4980	91.0000
46.5072	89.0000
46.5164	68.0000
46.5257	73.0000
46.5349	86.0000
46.5441	75.0000
46.5533	83.0000
46.5626	86.0000
46.5718	76.0000
46.5810	96.0000
46.5902	90.0000
46.5995	81.0000
46.6087	76.0000
46.6179	72.0000
46.6271	61.0000
46.6363	75.0000
46.6456	89.0000
46.6548	80.0000
46.6640	97.0000
46.6732	73.0000
46.6825	74.0000
46.6917	83.0000
46.7009	71.0000
46.7101	85.0000
46.7193	92.0000
46.7286	93.0000
46.7378	85.0000
46.7470	69.0000
46.7562	73.0000
46.7655	98.0000
46.7747	77.0000
46.7839	79.0000
46.7931	83.0000
46.8024	63.0000
46.8116	83.0000
46.8208	76.0000
46.8300	92.0000
46.8392	95.0000
46.8485	86.0000
46.8577	83.0000
46.8669	81.0000
46.8761	69.0000
46.8854	85.0000
46.8946	79.0000
46.9038	79.0000
46.9130	65.0000
46.9222	72.0000
46.9315	83.0000
46.9407	88.0000
46.9499	95.0000
46.9591	87.0000
46.9684	75.0000
46.9776	91.0000
46.9868	81.0000
46.9960	104.0000
47.0052	91.0000
47.0145	93.0000
47.0237	76.0000
47.0329	71.0000
47.0421	76.0000
47.0514	91.0000
47.0606	65.0000
47.0698	77.0000
47.0790	80.0000
47.0883	67.0000
47.0975	81.0000
47.1067	75.0000
47.1159	85.0000
47.1251	88.0000
47.1344	73.0000
47.1436	70.0000
47.1528	72.0000
47.1620	81.0000
47.1713	74.0000
47.1805	76.0000
47.1897	83.0000
47.1989	82.0000
47.2081	97.0000
47.2174	76.0000
47.2266	63.0000
47.2358	85.0000
47.2450	79.0000
47.2543	73.0000
47.2635	62.0000
47.2727	92.0000
47.2819	69.0000
47.2912	78.0000
47.3004	81.0000
47.3096	73.0000
47.3188	77.0000
47.3280	62.0000
47.3373	77.0000
47.3465	71.0000
47.3557	80.0000
47.3649	89.0000
47.3742	82.0000
47.3834	65.0000
47.3926	75.0000
47.4018	82.0000
47.4110	68.0000
47.4203	69.0000
47.4295	73.0000
47.4387	67.0000
47.4479	55.0000
47.4572	81.0000
47.4664	79.0000
47.4756	83.0000
47.4848	71.0000
47.4940	74.0000
47.5033	70.0000
47.5125	88.0000
47.5217	77.0000
47.5309	68.0000
47.5402	76.0000
47.5494	77.0000
47.5586	81.0000
47.5678	79.0000
47.5771	83.0000
47.5863	96.0000
47.5955	81.0000
47.6047	81.0000
47.6139	60.0000
47.6232	99.0000
47.6324	81.0000
47.6416	59.0000
47.6508	81.0000
47.6601	73.0000
47.6693	76.0000
47.6785	75.0000
47.6877	75.0000
47.6969	85.0000
47.7062	73.0000
47.7154	75.0000
47.7246	76.0000
47.7338	82.0000
47.7431	97.0000
47.7523	75.0000
47.7615	86.0000
47.7707	64.0000
47.7800	66.0000
47.7892	69.0000
47.7984	75.0000
47.8076	86.0000
47.8168	79.0000
47.8261	72.0000
47.8353	85.0000
47.8445	77.0000
47.8537	82.0000
47.8630	78.0000
47.8722	74.0000
47.8814	74.0000
47.8906	81.0000
47.8998	78.0000
47.9091	77.0000
47.9183	74.0000
47.9275	74.0000
47.9367	92.0000
47.9460	74.0000
47.9552	76.0000
47.9644	74.0000
47.9736	75.0000
47.9829	63.0000
47.9921	77.0000
48.0013	94.0000
