11.0000	917.0000
11.0092	954.0000
11.0184	937.0000
11.0277	930.0000
11.0369	968.0000
11.0461	899.0000
11.0553	876.0000
11.0646	945.0000
11.0738	921.0000
11.0830	887.0000
11.0922	902.0000
11.1014	903.0000
11.1107	853.0000
11.1199	938.0000
11.1291	867.0000
11.1383	917.0000
11.1476	882.0000
11.1568	926.0000
11.1660	904.0000
11.1752	879.0000
11.1845	907.0000
11.1937	887.0000
11.2029	822.0000
11.2121	808.0000
11.2213	879.0000
11.2306	878.0000
11.2398	813.0000
11.2490	905.0000
11.2582	803.0000
11.2675	853.0000
11.2767	851.0000
11.2859	875.0000
11.2951	920.0000
11.3043	904.0000
11.3136	910.0000
11.3228	864.0000
11.3320	859.0000
11.3412	829.0000
11.3505	823.0000
11.3597	856.0000
11.3689	793.0000
11.3781	841.0000
11.3874	853.0000
11.3966	806.0000
11.4058	824.0000
11.4150	887.0000
11.4242	821.0000
11.4335	851.0000
11.4427	820.0000
11.4519	830.0000
11.4611	824.0000
11.4704	783.0000
11.4796	816.0000
11.4888	811.0000
11.4980	787.0000
11.5072	843.0000
11.5165	830.0000
11.5257	779.0000
11.5349	820.0000
11.5441	770.0000
11.5534	848.0000
11.5626	801.0000
11.5718	767.0000
11.5810	778.0000
11.5902	732.0000
11.5995	824.0000
11.6087	783.0000
11.6179	800.0000
11.6271	803.0000
11.6364	737.0000
11.6456	782.0000
11.6548	765.0000
11.6640	798.0000
11.6733	763.0000
11.6825	778.0000
11.6917	786.0000
11.7009	794.0000
11.7101	730.0000
11.7194	752.0000
11.7286	779.0000
11.7378	757.0000
11.7470	780.0000
11.7563	717.0000
11.7655	695.0000
11.7747	762.0000
11.7839	756.0000
11.7931	800.0000
11.8024	778.0000
11.8116	728.0000
11.8208	722.0000
11.8300	694.0000
11.8393	709.0000
11.8485	745.0000
11.8577	734.0000
11.8669	712.0000
11.8762	752.0000
11.8854	759.0000
11.8946	665.0000
11.9038	688.0000
11.9130	667.0000
11.9223	752.0000
11.9315	708.0000
11.9407	698.0000
11.9499	674.0000
11.9592	698.0000
11.9684	666.0000
11.9776	702.0000
11.9868	671.0000
11.9960	696.0000
12.0053	687.0000
12.0145	694.0000
12.0237	710.0000
12.0329	653.0000
12.0422	660.0000
12.0514	682.0000
12.0606	687.0000
12.0698	676.0000
12.0791	642.0000
12.0883	662.0000
12.0975	669.0000
12.1067	697.0000
12.1159	712.0000
12.1252	680.0000
12.1344	669.0000
12.1436	718.0000
12.1528	676.0000
12.1621	725.0000
12.1713	693.0000
12.1805	704.0000
12.1897	693.0000
12.1989	643.0000
12.2082	646.0000
12.2174	652.0000
12.2266	676.0000
12.2358	637.0000
12.2451	654.0000
12.2543	666.0000
12.2635	657.0000
12.2727	649.0000
12.2819	629.0000
12.2912	678.0000
12.3004	635.0000
12.3096	621.0000
12.3188	689.0000
12.3281	642.0000
12.3373	630.0000
12.3465	654.0000
12.3557	663.0000
12.3650	627.0000
12.3742	648.0000
12.3834	596.0000
12.3926	667.0000
12.4018	649.0000
12.4111	601.0000
12.4203	652.0000
12.4295	652.0000
12.4387	623.0000
12.4480	612.0000
12.4572	626.0000
12.4664	634.0000
12.4756	619.0000
12.4848	611.0000
12.4941	573.0000
12.5033	607.0000
12.5125	586.0000
12.5217	615.0000
12.5310	612.0000
12.5402	634.0000
12.5494	596.0000
12.5586	607.0000
12.5679	535.0000
12.5771	649.0000
12.5863	617.0000
12.5955	577.0000
12.6047	580.0000
12.6140	578.0000
12.6232	600.0000
12.6324	552.0000
12.6416	599.0000
12.6509	625.0000
12.6601	572.0000
12.6693	619.0000
12.6785	549.0000
12.6877	560.0000
12.6970	555.0000
12.7062	615.0000
12.7154	583.0000
12.7246	594.0000
12.7339	559.0000
12.7431	566.0000
12.7523	530.0000
12.7615	555.0000
12.7707	569.0000
12.7800	538.0000
12.7892	556.0000
12.7984	551.0000
12.8076	598.0000
12.8169	597.0000
12.8261	568.0000
12.8353	576.0000
12.8445	590.0000
12.8538	546.0000
12.8630	552.0000
12.8722	509.0000
12.8814	602.0000
12.8906	555.0000
12.8999	503.0000
12.9091	533.0000
12.9183	563.0000
12.9275	531.0000
12.9368	506.0000
12.9460	501.0000
12.9552	572.0000
12.9644	571.0000
12.9736	560.0000
12.9829	505.0000
12.9921	559.0000
13.0013	544.0000
13.0105	552.0000
13.0198	548.0000
13.0290	538.0000
13.0382	500.0000
13.0474	525.0000
13.0567	525.0000
13.0659	573.0000
13.0751	529.0000
13.0843	506.0000
13.0935	509.0000
13.1028	511.0000
13.1120	509.0000
13.1212	515.0000
13.1304	571.0000
13.1397	552.0000
13.1489	516.0000
13.1581	519.0000
13.1673	523.0000
13.1765	521.0000
13.1858	531.0000
13.1950	497.0000
13.2042	522.0000
13.2134	508.0000
13.2227	551.0000
13.2319	550.0000
13.2411	516.0000
13.2503	558.0000
13.2596	529.0000
13.2688	504.0000
13.2780	522.0000
13.2872	503.0000
13.2964	513.0000
13.3057	515.0000
13.3149	535.0000
13.3241	478.0000
13.3333	489.0000
13.3426	508.0000
13.3518	519.0000
13.3610	500.0000
13.3702	534.0000
13.3794	480.0000
13.3887	528.0000
13.3979	470.0000
13.4071	479.0000
13.4163	535.0000
13.4256	502.0000
13.4348	505.0000
13.4440	502.0000
13.4532	486.0000
13.4624	501.0000
13.4717	486.0000
13.4809	473.0000
13.4901	497.0000
13.4993	482.0000
13.5086	490.0000
13.5178	501.0000
13.5270	469.0000
13.5362	438.0000
13.5455	488.0000
13.5547	483.0000
13.5639	447.0000
13.5731	455.0000
13.5823	484.0000
13.5916	476.0000
13.6008	463.0000
13.6100	489.0000
13.6192	458.0000
13.6285	527.0000
13.6377	452.0000
13.6469	465.0000
13.6561	506.0000
13.6653	446.0000
13.6746	467.0000
13.6838	475.0000
13.6930	481.0000
13.7022	451.0000
13.7115	469.0000
13.7207	475.0000
13.7299	460.0000
13.7391	469.0000
13.7484	444.0000
13.7576	435.0000
13.7668	462.0000
13.7760	441.0000
13.7852	498.0000
13.7945	501.0000
13.8037	401.0000
13.8129	439.0000
13.8221	438.0000
13.8314	430.0000
13.8406	440.0000
13.8498	454.0000
13.8590	466.0000
13.8682	468.0000
13.8775	493.0000
13.8867	456.0000
13.8959	431.0000
13.9051	432.0000
13.9144	461.0000
13.9236	447.0000
13.9328	465.0000
13.9420	426.0000
13.9512	444.0000
13.9605	434.0000
13.9697	452.0000
13.9789	448.0000
13.9881	453.0000
13.9974	474.0000
14.0066	437.0000
14.0158	432.0000
14.0250	456.0000
14.0343	414.0000
14.0435	459.0000
14.0527	461.0000
14.0619	426.0000
14.0711	452.0000
14.0804	442.0000
14.0896	441.0000
14.0988	434.0000
14.1080	435.0000
14.1173	400.0000
14.1265	418.0000
14.1357	441.0000
14.1449	450.0000
14.1541	457.0000
14.1634	436.0000
14.1726	425.0000
14.1818	417.0000
14.1910	429.0000
14.2003	449.0000
14.2095	434.0000
14.2187	443.0000
14.2279	391.0000
14.2372	397.0000
14.2464	442.0000
14.2556	409.0000
14.2648	363.0000
14.2740	397.0000
14.2833	462.0000
14.2925	415.0000
14.3017	468.0000
14.3109	403.0000
14.3202	433.0000
14.3294	444.0000
14.3386	428.0000
14.3478	428.0000
14.3570	437.0000
14.3663	417.0000
14.3755	428.0000
14.3847	422.0000
14.3939	405.0000
14.4032	396.0000
14.4124	398.0000
14.4216	396.0000
14.4308	398.0000
14.4401	414.0000
14.4493	444.0000
14.4585	408.0000
14.4677	455.0000
14.4769	383.0000
14.4862	417.0000
14.4954	417.0000
14.5046	407.0000
14.5138	428.0000
14.5231	408.0000
14.5323	375.0000
14.5415	387.0000
14.5507	388.0000
14.5599	393.0000
14.5692	439.0000
14.5784	426.0000
14.5876	394.0000
14.5968	389.0000
14.6061	408.0000
14.6153	455.0000
14.6245	416.0000
14.6337	406.0000
14.6429	396.0000
14.6522	399.0000
14.6614	398.0000
14.6706	391.0000
14.6798	423.0000
14.6891	406.0000
14.6983	422.0000
14.7075	368.0000
14.7167	371.0000
14.7260	390.0000
14.7352	421.0000
14.7444	387.0000
14.7536	381.0000
14.7628	382.0000
14.7721	390.0000
14.7813	394.0000
14.7905	401.0000
14.7997	353.0000
14.8090	414.0000
14.8182	413.0000
14.8274	439.0000
14.8366	420.0000
14.8458	413.0000
14.8551	429.0000
14.8643	413.0000
14.8735	419.0000
14.8827	401.0000
14.8920	395.0000
14.9012	409.0000
14.9104	399.0000
14.9196	411.0000
14.9289	390.0000
14.9381	395.0000
14.9473	379.0000
14.9565	360.0000
14.9657	374.0000
14.9750	397.0000
14.9842	386.0000
14.9934	353.0000
15.0026	380.0000
15.0119	411.0000
15.0211	392.0000
15.0303	385.0000
15.0395	397.0000
15.0487	396.0000
15.0580	416.0000
15.0672	388.0000
15.0764	385.0000
15.0856	378.0000
15.0949	413.0000
15.1041	374.0000
15.1133	366.0000
15.1225	386.0000
15.1317	362.0000
15.1410	382.0000
15.1502	368.0000
15.1594	366.0000
15.1686	378.0000
15.1779	386.0000
15.1871	384.0000
15.1963	387.0000
15.2055	367.0000
15.2148	383.0000
15.2240	359.0000
15.2332	382.0000
15.2424	387.0000
15.2516	342.0000
15.2609	380.0000
15.2701	367.0000
15.2793	390.0000
15.2885	352.0000
15.2978	361.0000
15.3070	371.0000
15.3162	352.0000
15.3254	407.0000
15.3346	368.0000
15.3439	390.0000
15.3531	384.0000
15.3623	371.0000
15.3715	375.0000
15.3808	350.0000
15.3900	333.0000
15.3992	357.0000
15.4084	341.0000
15.4177	367.0000
15.4269	343.0000
15.4361	347.0000
15.4453	333.0000
15.4545	394.0000
15.4638	354.0000
15.4730	349.0000
15.4822	380.0000
15.4914	352.0000
15.5007	375.0000
15.5099	381.0000
15.5191	353.0000
15.5283	358.0000
15.5375	378.0000
15.5468	378.0000
15.5560	394.0000
15.5652	369.0000
15.5744	342.0000
15.5837	353.0000
15.5929	341.0000
15.6021	343.0000
15.6113	367.0000
15.6206	361.0000
15.6298	341.0000
15.6390	366.0000
15.6482	350.0000
15.6574	349.0000
15.6667	369.0000
15.6759	368.0000
15.6851	345.0000
15.6943	357.0000
15.7036	388.0000
15.7128	367.0000
15.7220	346.0000
15.7312	352.0000
15.7404	366.0000
15.7497	293.0000
15.7589	321.0000
15.7681	324.0000
15.7773	393.0000
15.7866	364.0000
15.7958	341.0000
15.8050	380.0000
15.8142	377.0000
15.8234	342.0000
15.8327	351.0000
15.8419	351.0000
15.8511	313.0000
15.8603	336.0000
15.8696	365.0000
15.8788	335.0000
15.8880	341.0000
15.8972	366.0000
15.9065	350.0000
15.9157	337.0000
15.9249	369.0000
15.9341	371.0000
15.9433	346.0000
15.9526	314.0000
15.9618	335.0000
15.9710	307.0000
15.9802	353.0000
15.9895	354.0000
15.9987	349.0000
16.0079	351.0000
16.0171	339.0000
16.0263	338.0000
16.0356	320.0000
16.0448	355.0000
16.0540	329.0000
16.0632	345.0000
16.0725	347.0000
16.0817	306.0000
16.0909	333.0000
16.1001	345.0000
16.1094	325.0000
16.1186	377.0000
16.1278	316.0000
16.1370	316.0000
16.1462	310.0000
16.1555	330.0000
16.1647	330.0000
16.1739	309.0000
16.1831	326.0000
16.1924	322.0000
16.2016	329.0000
16.2108	342.0000
16.2200	339.0000
16.2292	332.0000
16.2385	345.0000
16.2477	306.0000
16.2569	335.0000
16.2661	315.0000
16.2754	333.0000
16.2846	316.0000
16.2938	340.0000
16.3030	337.0000
16.3122	322.0000
16.3215	378.0000
16.3307	350.0000
16.3399	330.0000
16.3491	355.0000
16.3584	299.0000
16.3676	305.0000
16.3768	311.0000
16.3860	309.0000
16.3953	346.0000
16.4045	351.0000
16.4137	306.0000
16.4229	316.0000
16.4321	299.0000
16.4414	332.0000
16.4506	332.0000
16.4598	289.0000
16.4690	303.0000
16.4783	311.0000
16.4875	313.0000
16.4967	315.0000
16.5059	343.0000
16.5151	318.0000
16.5244	330.0000
16.5336	314.0000
16.5428	321.0000
16.5520	293.0000
16.5613	346.0000
16.5705	324.0000
16.5797	319.0000
16.5889	327.0000
16.5982	273.0000
16.6074	332.0000
16.6166	334.0000
16.6258	320.0000
16.6350	327.0000
16.6443	327.0000
16.6535	311.0000
16.6627	317.0000
16.6719	307.0000
16.6812	291.0000
16.6904	324.0000
16.6996	303.0000
16.7088	324.0000
16.7180	300.0000
16.7273	285.0000
16.7365	313.0000
16.7457	332.0000
16.7549	306.0000
16.7642	311.0000
16.7734	321.0000
16.7826	294.0000
16.7918	296.0000
16.8011	300.0000
16.8103	296.0000
16.8195	295.0000
16.8287	312.0000
16.8379	326.0000
16.8472	308.0000
16.8564	305.0000
16.8656	303.0000
16.8748	352.0000
16.8841	300.0000
16.8933	303.0000
16.9025	291.0000
16.9117	308.0000
16.9209	290.0000
16.9302	298.0000
16.9394	281.0000
16.9486	295.0000
16.9578	290.0000
16.9671	307.0000
16.9763	299.0000
16.9855	294.0000
16.9947	300.0000
17.0039	309.0000
17.0132	283.0000
17.0224	300.0000
17.0316	309.0000
17.0408	296.0000
17.0501	282.0000
17.0593	282.0000
17.0685	289.0000
17.0777	291.0000
17.0870	288.0000
17.0962	270.0000
17.1054	272.0000
17.1146	266.0000
17.1238	284.0000
17.1331	292.0000
17.1423	285.0000
17.1515	318.0000
17.1607	275.0000
17.1700	287.0000
17.1792	282.0000
17.1884	289.0000
17.1976	299.0000
17.2068	270.0000
17.2161	291.0000
17.2253	322.0000
17.2345	300.0000
17.2437	271.0000
17.2530	291.0000
17.2622	294.0000
17.2714	258.0000
17.2806	256.0000
17.2899	266.0000
17.2991	270.0000
17.3083	262.0000
17.3175	287.0000
17.3267	280.0000
17.3360	273.0000
17.3452	309.0000
17.3544	298.0000
17.3636	292.0000
17.3729	273.0000
17.3821	269.0000
17.3913	292.0000
17.4005	251.0000
17.4097	271.0000
17.4190	296.0000
17.4282	290.0000
17.4374	270.0000
17.4466	251.0000
17.4559	273.0000
17.4651	276.0000
17.4743	312.0000
17.4835	277.0000
17.4927	264.0000
17.5020	312.0000
17.5112	279.0000
17.5204	273.0000
17.5296	314.0000
17.5389	280.0000
17.5481	263.0000
17.5573	297.0000
17.5665	267.0000
17.5758	282.0000
17.5850	237.0000
17.5942	306.0000
17.6034	279.0000
17.6126	269.0000
17.6219	283.0000
17.6311	266.0000
17.6403	290.0000
17.6495	251.0000
17.6588	283.0000
17.6680	265.0000
17.6772	257.0000
17.6864	258.0000
17.6956	261.0000
17.7049	269.0000
17.7141	249.0000
17.7233	271.0000
17.7325	274.0000
17.7418	269.0000
17.7510	285.0000
17.7602	256.0000
17.7694	287.0000
17.7787	270.0000
17.7879	264.0000
17.7971	253.0000
17.8063	255.0000
17.8155	260.0000
17.8248	253.0000
17.8340	289.0000
17.8432	256.0000
17.8524	289.0000
17.8617	271.0000
17.8709	261.0000
17.8801	256.0000
17.8893	241.0000
17.8985	285.0000
17.9078	244.0000
17.9170	278.0000
17.9262	279.0000
17.9354	269.0000
17.9447	273.0000
17.9539	249.0000
17.9631	268.0000
17.9723	265.0000
17.9816	278.0000
17.9908	266.0000
18.0000	291.0000
18.0092	259.0000
18.0184	236.0000
18.0277	255.0000
18.0369	264.0000
18.0461	252.0000
18.0553	245.0000
18.0646	284.0000
18.0738	250.0000
18.0830	277.0000
18.0922	248.0000
18.1014	226.0000
18.1107	279.0000
18.1199	283.0000
18.1291	255.0000
18.1383	224.0000
18.1476	258.0000
18.1568	266.0000
18.1660	258.0000
18.1752	258.0000
18.1844	246.0000
18.1937	254.0000
18.2029	240.0000
18.2121	260.0000
18.2213	259.0000
18.2306	263.0000
18.2398	266.0000
18.2490	271.0000
18.2582	231.0000
18.2675	263.0000
18.2767	245.0000
18.2859	276.0000
18.2951	267.0000
18.3043	261.0000
18.3136	240.0000
18.3228	278.0000
18.3320	255.0000
18.3412	227.0000
18.3505	276.0000
18.3597	268.0000
18.3689	262.0000
18.3781	231.0000
18.3873	260.0000
18.3966	275.0000
18.4058	248.0000
18.4150	249.0000
18.4242	233.0000
18.4335	252.0000
18.4427	233.0000
18.4519	243.0000
18.4611	223.0000
18.4704	261.0000
18.4796	257.0000
18.4888	224.0000
18.4980	266.0000
18.5072	245.0000
18.5165	267.0000
18.5257	296.0000
18.5349	257.0000
18.5441	259.0000
18.5534	228.0000
18.5626	238.0000
18.5718	261.0000
18.5810	275.0000
18.5902	261.0000
18.5995	271.0000
18.6087	252.0000
18.6179	264.0000
18.6271	235.0000
18.6364	276.0000
18.6456	277.0000
18.6548	263.0000
18.6640	259.0000
18.6732	258.0000
18.6825	237.0000
18.6917	248.0000
18.7009	271.0000
18.7101	254.0000
18.7194	245.0000
18.7286	273.0000
18.7378	247.0000
18.7470	276.0000
18.7563	259.0000
18.7655	267.0000
18.7747	262.0000
18.7839	249.0000
18.7931	264.0000
18.8024	213.0000
18.8116	295.0000
18.8208	250.0000
18.8300	247.0000
18.8393	250.0000
18.8485	245.0000
18.8577	251.0000
18.8669	265.0000
18.8761	216.0000
18.8854	240.0000
18.8946	255.0000
18.9038	265.0000
18.9130	255.0000
18.9223	254.0000
18.9315	274.0000
18.9407	238.0000
18.9499	254.0000
18.9592	270.0000
18.9684	277.0000
18.9776	259.0000
18.9868	255.0000
18.9960	251.0000
19.0053	276.0000
19.0145	287.0000
19.0237	273.0000
19.0329	247.0000
19.0422	241.0000
19.0514	247.0000
19.0606	276.0000
19.0698	238.0000
19.0790	256.0000
19.0883	291.0000
19.0975	244.0000
19.1067	286.0000
19.1159	230.0000
19.1252	251.0000
19.1344	301.0000
19.1436	249.0000
19.1528	266.0000
19.1621	227.0000
19.1713	243.0000
19.1805	246.0000
19.1897	257.0000
19.1989	250.0000
19.2082	292.0000
19.2174	285.0000
19.2266	294.0000
19.2358	265.0000
19.2451	229.0000
19.2543	286.0000
19.2635	279.0000
19.2727	264.0000
19.2819	279.0000
19.2912	234.0000
19.3004	238.0000
19.3096	272.0000
19.3188	272.0000
19.3281	216.0000
19.3373	252.0000
19.3465	257.0000
19.3557	226.0000
19.3649	240.0000
19.3742	269.0000
19.3834	252.0000
19.3926	224.0000
19.4018	246.0000
19.4111	248.0000
19.4203	252.0000
19.4295	279.0000
19.4387	245.0000
19.4480	258.0000
19.4572	249.0000
19.4664	223.0000
19.4756	235.0000
19.4848	261.0000
19.4941	249.0000
19.5033	258.0000
19.5125	273.0000
19.5217	256.0000
19.5310	260.0000
19.5402	279.0000
19.5494	288.0000
19.5586	250.0000
19.5678	237.0000
19.5771	251.0000
19.5863	229.0000
19.5955	266.0000
19.6047	258.0000
19.6140	254.0000
19.6232	241.0000
19.6324	268.0000
19.6416	264.0000
19.6509	261.0000
19.6601	262.0000
19.6693	281.0000
19.6785	252.0000
19.6877	265.0000
19.6970	252.0000
19.7062	250.0000
19.7154	283.0000
19.7246	258.0000
19.7339	266.0000
19.7431	270.0000
19.7523	238.0000
19.7615	283.0000
19.7707	244.0000
19.7800	270.0000
19.7892	262.0000
19.7984	247.0000
19.8076	264.0000
19.8169	261.0000
19.8261	265.0000
19.8353	288.0000
19.8445	251.0000
19.8537	255.0000
19.8630	251.0000
19.8722	235.0000
19.8814	314.0000
19.8906	263.0000
19.8999	267.0000
19.9091	242.0000
19.9183	257.0000
19.9275	280.0000
19.9368	252.0000
19.9460	260.0000
19.9552	285.0000
19.9644	223.0000
19.9736	266.0000
19.9829	286.0000
19.9921	249.0000
20.0013	253.0000
20.0105	257.0000
20.0198	287.0000
20.0290	249.0000
20.0382	271.0000
20.0474	245.0000
20.0566	291.0000
20.0659	245.0000
20.0751	231.0000
20.0843	267.0000
20.0935	239.0000
20.1028	257.0000
20.1120	242.0000
20.1212	290.0000
20.1304	255.0000
20.1397	240.0000
20.1489	248.0000
20.1581	280.0000
20.1673	261.0000
20.1765	275.0000
20.1858	234.0000
20.1950	236.0000
20.2042	237.0000
20.2134	283.0000
20.2227	255.0000
20.2319	252.0000
20.2411	275.0000
20.2503	253.0000
20.2595	270.0000
20.2688	264.0000
20.2780	260.0000
20.2872	274.0000
20.2964	267.0000
20.3057	292.0000
20.3149	290.0000
20.3241	275.0000
20.3333	223.0000
20.3426	257.0000
20.3518	251.0000
20.3610	244.0000
20.3702	254.0000
20.3794	250.0000
20.3887	264.0000
20.3979	261.0000
20.4071	245.0000
20.4163	248.0000
20.4256	242.0000
20.4348	252.0000
20.4440	251.0000
20.4532	253.0000
20.4624	241.0000
20.4717	236.0000
20.4809	271.0000
20.4901	263.0000
20.4993	285.0000
20.5086	282.0000
20.5178	225.0000
20.5270	257.0000
20.5362	229.0000
20.5454	279.0000
20.5547	274.0000
20.5639	266.0000
20.5731	244.0000
20.5823	265.0000
20.5916	261.0000
20.6008	281.0000
20.6100	258.0000
20.6192	242.0000
20.6285	251.0000
20.6377	241.0000
20.6469	279.0000
20.6561	264.0000
20.6653	266.0000
20.6746	293.0000
20.6838	262.0000
20.6930	254.0000
20.7022	268.0000
20.7115	289.0000
20.7207	276.0000
20.7299	265.0000
20.7391	259.0000
20.7483	273.0000
20.7576	292.0000
20.7668	234.0000
20.7760	258.0000
20.7852	293.0000
20.7945	248.0000
20.8037	244.0000
20.8129	273.0000
20.8221	237.0000
20.8314	258.0000
20.8406	254.0000
20.8498	270.0000
20.8590	235.0000
20.8682	267.0000
20.8775	259.0000
20.8867	263.0000
20.8959	239.0000
20.9051	267.0000
20.9144	268.0000
20.9236	282.0000
20.9328	244.0000
20.9420	243.0000
20.9512	253.0000
20.9605	274.0000
20.9697	259.0000
20.9789	261.0000
20.9881	250.0000
20.9974	259.0000
21.0066	241.0000
21.0158	276.0000
21.0250	269.0000
21.0342	258.0000
21.0435	253.0000
21.0527	291.0000
21.0619	259.0000
21.0711	284.0000
21.0804	265.0000
21.0896	249.0000
21.0988	267.0000
21.1080	263.0000
21.1173	249.0000
21.1265	282.0000
21.1357	291.0000
21.1449	281.0000
21.1541	293.0000
21.1634	256.0000
21.1726	282.0000
21.1818	277.0000
21.1910	259.0000
21.2003	291.0000
21.2095	305.0000
21.2187	330.0000
21.2279	265.0000
21.2371	295.0000
21.2464	325.0000
21.2556	402.0000
21.2648	573.0000
21.2740	947.0000
21.2833	1356.0000
21.2925	1635.0000
21.3017	1453.0000
21.3109	946.0000
21.3202	575.0000
21.3294	393.0000
21.3386	332.0000
21.3478	303.0000
21.3570	291.0000
21.3663	317.0000
21.3755	334.0000
21.3847	373.0000
21.3939	522.0000
21.4032	682.0000
21.4124	939.0000
21.4216	1046.0000
21.4308	866.0000
21.4400	525.0000
21.4493	355.0000
21.4585	307.0000
21.4677	264.0000
21.4769	271.0000
21.4862	260.0000
21.4954	272.0000
21.5046	245.0000
21.5138	275.0000
21.5231	235.0000
21.5323	248.0000
21.5415	247.0000
21.5507	259.0000
21.5599	253.0000
21.5692	264.0000
21.5784	270.0000
21.5876	285.0000
21.5968	238.0000
21.6061	232.0000
21.6153	263.0000
21.6245	244.0000
21.6337	247.0000
21.6429	268.0000
21.6522	241.0000
21.6614	246.0000
21.6706	280.0000
21.6798	270.0000
21.6891	271.0000
21.6983	267.0000
21.7075	242.0000
21.7167	278.0000
21.7259	271.0000
21.7352	247.0000
21.7444	277.0000
21.7536	278.0000
21.7628	247.0000
21.7721	252.0000
21.7813	264.0000
21.7905	247.0000
21.7997	252.0000
21.8090	251.0000
21.8182	252.0000
21.8274	224.0000
21.8366	240.0000
21.8458	257.0000
21.8551	254.0000
21.8643	269.0000
21.8735	257.0000
21.8827	266.0000
21.8920	214.0000
21.9012	251.0000
21.9104	279.0000
21.9196	265.0000
21.9288	234.0000
21.9381	239.0000
21.9473	242.0000
21.9565	255.0000
21.9657	269.0000
21.9750	251.0000
21.9842	241.0000
21.9934	254.0000
22.0026	283.0000
22.0119	262.0000
22.0211	243.0000
22.0303	251.0000
22.0395	271.0000
22.0487	289.0000
22.0580	260.0000
22.0672	233.0000
22.0764	277.0000
22.0856	264.0000
22.0949	278.0000
22.1041	239.0000
22.1133	261.0000
22.1225	250.0000
22.1317	250.0000
22.1410	270.0000
22.1502	232.0000
22.1594	228.0000
22.1686	211.0000
22.1779	236.0000
22.1871	248.0000
22.1963	261.0000
22.2055	237.0000
22.2147	261.0000
22.2240	218.0000
22.2332	265.0000
22.2424	253.0000
22.2516	245.0000
22.2609	271.0000
22.2701	260.0000
22.2793	257.0000
22.2885	226.0000
22.2978	265.0000
22.3070	257.0000
22.3162	239.0000
22.3254	256.0000
22.3346	232.0000
22.3439	255.0000
22.3531	236.0000
22.3623	244.0000
22.3715	227.0000
22.3808	224.0000
22.3900	245.0000
22.3992	255.0000
22.4084	249.0000
22.4176	236.0000
22.4269	226.0000
22.4361	248.0000
22.4453	225.0000
22.4545	256.0000
22.4638	270.0000
22.4730	253.0000
22.4822	283.0000
22.4914	258.0000
22.5007	223.0000
22.5099	250.0000
22.5191	262.0000
22.5283	257.0000
22.5375	224.0000
22.5468	255.0000
22.5560	222.0000
22.5652	241.0000
22.5744	252.0000
22.5837	240.0000
22.5929	253.0000
22.6021	238.0000
22.6113	251.0000
22.6205	256.0000
22.6298	253.0000
22.6390	219.0000
22.6482	236.0000
22.6574	248.0000
22.6667	238.0000
22.6759	243.0000
22.6851	254.0000
22.6943	281.0000
22.7036	256.0000
22.7128	246.0000
22.7220	263.0000
22.7312	257.0000
22.7404	266.0000
22.7497	233.0000
22.7589	226.0000
22.7681	273.0000
22.7773	230.0000
22.7866	237.0000
22.7958	257.0000
22.8050	240.0000
22.8142	246.0000
22.8234	250.0000
22.8327	246.0000
22.8419	245.0000
22.8511	249.0000
22.8603	227.0000
22.8696	247.0000
22.8788	245.0000
22.8880	241.0000
22.8972	245.0000
22.9064	255.0000
22.9157	239.0000
22.9249	219.0000
22.9341	263.0000
22.9433	257.0000
22.9526	238.0000
22.9618	258.0000
22.9710	248.0000
22.9802	245.0000
22.9895	207.0000
22.9987	249.0000
23.0079	235.0000
23.0171	258.0000
23.0263	256.0000
23.0356	271.0000
23.0448	244.0000
23.0540	238.0000
23.0632	243.0000
23.0725	244.0000
23.0817	230.0000
23.0909	244.0000
23.1001	239.0000
23.1093	236.0000
23.1186	259.0000
23.1278	246.0000
23.1370	265.0000
23.1462	237.0000
23.1555	255.0000
23.1647	228.0000
23.1739	268.0000
23.1831	256.0000
23.1924	254.0000
23.2016	247.0000
23.2108	247.0000
23.2200	239.0000
23.2292	253.0000
23.2385	227.0000
23.2477	262.0000
23.2569	258.0000
23.2661	247.0000
23.2754	241.0000
23.2846	269.0000
23.2938	258.0000
23.3030	232.0000
23.3122	254.0000
23.3215	249.0000
23.3307	264.0000
23.3399	229.0000
23.3491	252.0000
23.3584	253.0000
23.3676	250.0000
23.3768	263.0000
23.3860	246.0000
23.3952	248.0000
23.4045	245.0000
23.4137	237.0000
23.4229	245.0000
23.4321	243.0000
23.4414	206.0000
23.4506	262.0000
23.4598	239.0000
23.4690	267.0000
23.4783	235.0000
23.4875	225.0000
23.4967	228.0000
23.5059	249.0000
23.5151	250.0000
23.5244	196.0000
23.5336	226.0000
23.5428	232.0000
23.5520	235.0000
23.5613	255.0000
23.5705	248.0000
23.5797	244.0000
23.5889	259.0000
23.5981	258.0000
23.6074	249.0000
23.6166	238.0000
23.6258	247.0000
23.6350	278.0000
23.6443	236.0000
23.6535	234.0000
23.6627	263.0000
23.6719	223.0000
23.6812	226.0000
23.6904	258.0000
23.6996	248.0000
23.7088	262.0000
23.7180	255.0000
23.7273	203.0000
23.7365	271.0000
23.7457	249.0000
23.7549	244.0000
23.7642	239.0000
23.7734	284.0000
23.7826	214.0000
23.7918	247.0000
23.8010	239.0000
23.8103	237.0000
23.8195	233.0000
23.8287	254.0000
23.8379	223.0000
23.8472	248.0000
23.8564	242.0000
23.8656	241.0000
23.8748	229.0000
23.8841	252.0000
23.8933	262.0000
23.9025	250.0000
23.9117	247.0000
23.9209	243.0000
23.9302	241.0000
23.9394	227.0000
23.9486	228.0000
23.9578	242.0000
23.9671	254.0000
23.9763	231.0000
23.9855	234.0000
23.9947	231.0000
24.0039	261.0000
24.0132	243.0000
24.0224	232.0000
24.0316	231.0000
24.0408	215.0000
24.0501	237.0000
24.0593	237.0000
24.0685	247.0000
24.0777	256.0000
24.0869	234.0000
24.0962	244.0000
24.1054	221.0000
24.1146	213.0000
24.1238	244.0000
24.1331	238.0000
24.1423	236.0000
24.1515	254.0000
24.1607	221.0000
24.1700	231.0000
24.1792	248.0000
24.1884	257.0000
24.1976	273.0000
24.2068	274.0000
24.2161	228.0000
24.2253	268.0000
24.2345	241.0000
24.2437	247.0000
24.2530	254.0000
24.2622	235.0000
24.2714	214.0000
24.2806	262.0000
24.2898	233.0000
24.2991	241.0000
24.3083	241.0000
24.3175	239.0000
24.3267	245.0000
24.3360	269.0000
24.3452	250.0000
24.3544	231.0000
24.3636	234.0000
24.3729	244.0000
24.3821	252.0000
24.3913	257.0000
24.4005	230.0000
24.4097	237.0000
24.4190	246.0000
24.4282	239.0000
24.4374	231.0000
24.4466	234.0000
24.4559	254.0000
24.4651	249.0000
24.4743	244.0000
24.4835	239.0000
24.4927	249.0000
24.5020	248.0000
24.5112	241.0000
24.5204	258.0000
24.5296	257.0000
24.5389	214.0000
24.5481	238.0000
24.5573	240.0000
24.5665	230.0000
24.5757	217.0000
24.5850	223.0000
24.5942	225.0000
24.6034	233.0000
24.6126	223.0000
24.6219	236.0000
24.6311	244.0000
24.6403	238.0000
24.6495	238.0000
24.6588	238.0000
24.6680	254.0000
24.6772	248.0000
24.6864	300.0000
24.6956	241.0000
24.7049	237.0000
24.7141	257.0000
24.7233	246.0000
24.7325	267.0000
24.7418	244.0000
24.7510	240.0000
24.7602	222.0000
24.7694	236.0000
24.7786	259.0000
24.7879	255.0000
24.7971	251.0000
24.8063	263.0000
24.8155	238.0000
24.8248	234.0000
24.8340	239.0000
24.8432	255.0000
24.8524	263.0000
24.8617	239.0000
24.8709	228.0000
24.8801	250.0000
24.8893	220.0000
24.8985	241.0000
24.9078	259.0000
24.9170	254.0000
24.9262	250.0000
24.9354	228.0000
24.9447	256.0000
24.9539	268.0000
24.9631	230.0000
24.9723	258.0000
24.9815	244.0000
24.9908	236.0000
25.0000	270.0000
25.0092	233.0000
25.0184	225.0000
25.0277	251.0000
25.0369	244.0000
25.0461	267.0000
25.0553	231.0000
25.0646	254.0000
25.0738	231.0000
25.0830	238.0000
25.0922	234.0000
25.1014	238.0000
25.1107	231.0000
25.1199	241.0000
25.1291	230.0000
25.1383	262.0000
25.1476	242.0000
25.1568	266.0000
25.1660	255.0000
25.1752	248.0000
25.1844	234.0000
25.1937	271.0000
25.2029	241.0000
25.2121	221.0000
25.2213	215.0000
25.2306	237.0000
25.2398	248.0000
25.2490	238.0000
25.2582	268.0000
25.2674	222.0000
25.2767	205.0000
25.2859	247.0000
25.2951	241.0000
25.3043	251.0000
25.3136	255.0000
25.3228	231.0000
25.3320	248.0000
25.3412	265.0000
25.3505	205.0000
25.3597	208.0000
25.3689	243.0000
25.3781	260.0000
25.3873	272.0000
25.3966	243.0000
25.4058	256.0000
25.4150	238.0000
25.4242	252.0000
25.4335	245.0000
25.4427	245.0000
25.4519	245.0000
25.4611	250.0000
25.4703	258.0000
25.4796	240.0000
25.4888	226.0000
25.4980	243.0000
25.5072	265.0000
25.5165	275.0000
25.5257	216.0000
25.5349	255.0000
25.5441	241.0000
25.5534	287.0000
25.5626	249.0000
25.5718	240.0000
25.5810	228.0000
25.5902	282.0000
25.5995	253.0000
25.6087	247.0000
25.6179	237.0000
25.6271	268.0000
25.6364	252.0000
25.6456	284.0000
25.6548	259.0000
25.6640	255.0000
25.6732	263.0000
25.6825	296.0000
25.6917	278.0000
25.7009	253.0000
25.7101	251.0000
25.7194	253.0000
25.7286	257.0000
25.7378	271.0000
25.7470	256.0000
25.7562	278.0000
25.7655	258.0000
25.7747	244.0000
25.7839	264.0000
25.7931	274.0000
25.8024	250.0000
25.8116	265.0000
25.8208	241.0000
25.8300	241.0000
25.8393	224.0000
25.8485	254.0000
25.8577	291.0000
25.8669	239.0000
25.8761	292.0000
25.8854	239.0000
25.8946	237.0000
25.9038	236.0000
25.9130	248.0000
25.9223	269.0000
25.9315	264.0000
25.9407	255.0000
25.9499	263.0000
25.9591	262.0000
25.9684	265.0000
25.9776	251.0000
25.9868	234.0000
25.9960	272.0000
26.0053	256.0000
26.0145	226.0000
26.0237	228.0000
26.0329	231.0000
26.0422	234.0000
26.0514	251.0000
26.0606	245.0000
26.0698	249.0000
26.0790	238.0000
26.0883	237.0000
26.0975	250.0000
26.1067	254.0000
26.1159	250.0000
26.1252	267.0000
26.1344	251.0000
26.1436	254.0000
26.1528	288.0000
26.1620	245.0000
26.1713	258.0000
26.1805	245.0000
26.1897	229.0000
26.1989	241.0000
26.2082	251.0000
26.2174	281.0000
26.2266	281.0000
26.2358	285.0000
26.2451	283.0000
26.2543	247.0000
26.2635	258.0000
26.2727	275.0000
26.2819	241.0000
26.2912	265.0000
26.3004	271.0000
26.3096	250.0000
26.3188	265.0000
26.3281	257.0000
26.3373	286.0000
26.3465	235.0000
26.3557	240.0000
26.3649	272.0000
26.3742	239.0000
26.3834	244.0000
26.3926	231.0000
26.4018	241.0000
26.4111	264.0000
26.4203	300.0000
26.4295	259.0000
26.4387	264.0000
26.4479	248.0000
26.4572	271.0000
26.4664	233.0000
26.4756	265.0000
26.4848	251.0000
26.4941	258.0000
26.5033	260.0000
26.5125	273.0000
26.5217	247.0000
26.5310	249.0000
26.5402	229.0000
26.5494	249.0000
26.5586	281.0000
26.5678	227.0000
26.5771	253.0000
26.5863	280.0000
26.5955	256.0000
26.6047	260.0000
26.6140	286.0000
26.6232	262.0000
26.6324	278.0000
26.6416	230.0000
26.6508	245.0000
26.6601	253.0000
26.6693	257.0000
26.6785	250.0000
26.6877	261.0000
26.6970	253.0000
26.7062	256.0000
26.7154	250.0000
26.7246	282.0000
26.7339	240.0000
26.7431	285.0000
26.7523	283.0000
26.7615	279.0000
26.7707	258.0000
26.7800	303.0000
26.7892	261.0000
26.7984	231.0000
26.8076	281.0000
26.8169	245.0000
26.8261	290.0000
26.8353	258.0000
26.8445	271.0000
26.8537	266.0000
26.8630	258.0000
26.8722	253.0000
26.8814	262.0000
26.8906	240.0000
26.8999	249.0000
26.9091	235.0000
26.9183	231.0000
26.9275	232.0000
26.9367	263.0000
26.9460	262.0000
26.9552	279.0000
26.9644	270.0000
26.9736	230.0000
26.9829	265.0000
26.9921	288.0000
27.0013	256.0000
27.0105	253.0000
27.0198	258.0000
27.0290	284.0000
27.0382	255.0000
27.0474	260.0000
27.0566	262.0000
27.0659	266.0000
27.0751	267.0000
27.0843	257.0000
27.0935	267.0000
27.1028	285.0000
27.1120	277.0000
27.1212	258.0000
27.1304	267.0000
27.1396	252.0000
27.1489	257.0000
27.1581	263.0000
27.1673	260.0000
27.1765	263.0000
27.1858	295.0000
27.1950	265.0000
27.2042	251.0000
27.2134	267.0000
27.2227	262.0000
27.2319	287.0000
27.2411	262.0000
27.2503	274.0000
27.2595	261.0000
27.2688	258.0000
27.2780	258.0000
27.2872	235.0000
27.2964	268.0000
27.3057	268.0000
27.3149	268.0000
27.3241	285.0000
27.3333	263.0000
27.3425	274.0000
27.3518	274.0000
27.3610	268.0000
27.3702	247.0000
27.3794	285.0000
27.3887	275.0000
27.3979	269.0000
27.4071	223.0000
27.4163	274.0000
27.4256	253.0000
27.4348	300.0000
27.4440	272.0000
27.4532	259.0000
27.4624	282.0000
27.4717	279.0000
27.4809	267.0000
27.4901	298.0000
27.4993	259.0000
27.5086	282.0000
27.5178	281.0000
27.5270	254.0000
27.5362	267.0000
27.5454	262.0000
27.5547	259.0000
27.5639	267.0000
27.5731	261.0000
27.5823	261.0000
27.5916	268.0000
27.6008	270.0000
27.6100	255.0000
27.6192	279.0000
27.6284	253.0000
27.6377	272.0000
27.6469	279.0000
27.6561	281.0000
27.6653	286.0000
27.6746	270.0000
27.6838	300.0000
27.6930	276.0000
27.7022	267.0000
27.7115	255.0000
27.7207	265.0000
27.7299	267.0000
27.7391	284.0000
27.7483	267.0000
27.7576	256.0000
27.7668	261.0000
27.7760	279.0000
27.7852	258.0000
27.7945	280.0000
27.8037	287.0000
27.8129	259.0000
27.8221	271.0000
27.8313	258.0000
27.8406	282.0000
27.8498	284.0000
27.8590	251.0000
27.8682	252.0000
27.8775	279.0000
27.8867	262.0000
27.8959	291.0000
27.9051	271.0000
27.9144	267.0000
27.9236	261.0000
27.9328	277.0000
27.9420	301.0000
27.9512	269.0000
27.9605	279.0000
27.9697	286.0000
27.9789	303.0000
27.9881	292.0000
27.9974	302.0000
28.0066	296.0000
28.0158	293.0000
28.0250	255.0000
28.0342	260.0000
28.0435	311.0000
28.0527	297.0000
28.0619	251.0000
28.0711	309.0000
28.0804	275.0000
28.0896	274.0000
28.0988	272.0000
28.1080	273.0000
28.1172	281.0000
28.1265	259.0000
28.1357	316.0000
28.1449	245.0000
28.1541	266.0000
28.1634	289.0000
28.1726	278.0000
28.1818	257.0000
28.1910	245.0000
28.2003	268.0000
28.2095	290.0000
28.2187	245.0000
28.2279	284.0000
28.2371	276.0000
28.2464	298.0000
28.2556	260.0000
28.2648	271.0000
28.2740	268.0000
28.2833	315.0000
28.2925	287.0000
28.3017	281.0000
28.3109	280.0000
28.3201	246.0000
28.3294	331.0000
28.3386	269.0000
28.3478	282.0000
28.3570	273.0000
28.3663	277.0000
28.3755	262.0000
28.3847	273.0000
28.3939	272.0000
28.4032	274.0000
28.4124	298.0000
28.4216	261.0000
28.4308	260.0000
28.4400	304.0000
28.4493	262.0000
28.4585	280.0000
28.4677	282.0000
28.4769	282.0000
28.4862	283.0000
28.4954	284.0000
28.5046	303.0000
28.5138	292.0000
28.5230	281.0000
28.5323	334.0000
28.5415	254.0000
28.5507	280.0000
28.5599	267.0000
28.5692	270.0000
28.5784	261.0000
28.5876	257.0000
28.5968	294.0000
28.6061	268.0000
28.6153	282.0000
28.6245	297.0000
28.6337	276.0000
28.6429	273.0000
28.6522	286.0000
28.6614	255.0000
28.6706	307.0000
28.6798	275.0000
28.6891	275.0000
28.6983	292.0000
28.7075	266.0000
28.7167	247.0000
28.7259	284.0000
28.7352	277.0000
28.7444	274.0000
28.7536	275.0000
28.7628	296.0000
28.7721	284.0000
28.7813	292.0000
28.7905	298.0000
28.7997	282.0000
28.8089	303.0000
28.8182	299.0000
28.8274	289.0000
28.8366	310.0000
28.8458	297.0000
28.8551	293.0000
28.8643	256.0000
28.8735	268.0000
28.8827	263.0000
28.8920	278.0000
28.9012	277.0000
28.9104	286.0000
28.9196	281.0000
28.9288	321.0000
28.9381	285.0000
28.9473	228.0000
28.9565	267.0000
28.9657	293.0000
28.9750	262.0000
28.9842	294.0000
28.9934	291.0000
29.0026	273.0000
29.0118	278.0000
29.0211	313.0000
29.0303	259.0000
29.0395	282.0000
29.0487	292.0000
29.0580	256.0000
29.0672	274.0000
29.0764	263.0000
29.0856	272.0000
29.0949	266.0000
29.1041	292.0000
29.1133	276.0000
29.1225	267.0000
29.1317	264.0000
29.1410	255.0000
29.1502	277.0000
29.1594	271.0000
29.1686	277.0000
29.1779	250.0000
29.1871	267.0000
29.1963	296.0000
29.2055	265.0000
29.2147	265.0000
29.2240	281.0000
29.2332	256.0000
29.2424	286.0000
29.2516	282.0000
29.2609	268.0000
29.2701	286.0000
29.2793	309.0000
29.2885	288.0000
29.2977	265.0000
29.3070	271.0000
29.3162	262.0000
29.3254	296.0000
29.3346	286.0000
29.3439	261.0000
29.3531	295.0000
29.3623	263.0000
29.3715	292.0000
29.3808	286.0000
29.3900	298.0000
29.3992	254.0000
29.4084	280.0000
29.4176	275.0000
29.4269	265.0000
29.4361	267.0000
29.4453	253.0000
29.4545	276.0000
29.4638	285.0000
29.4730	261.0000
29.4822	298.0000
29.4914	287.0000
29.5006	289.0000
29.5099	264.0000
29.5191	314.0000
29.5283	285.0000
29.5375	270.0000
29.5468	251.0000
29.5560	297.0000
29.5652	261.0000
29.5744	315.0000
29.5837	308.0000
29.5929	267.0000
29.6021	276.0000
29.6113	260.0000
29.6205	254.0000
29.6298	261.0000
29.6390	294.0000
29.6482	252.0000
29.6574	268.0000
29.6667	246.0000
29.6759	285.0000
29.6851	274.0000
29.6943	259.0000
29.7035	283.0000
29.7128	280.0000
29.7220	259.0000
29.7312	285.0000
29.7404	257.0000
29.7497	253.0000
29.7589	306.0000
29.7681	270.0000
29.7773	256.0000
29.7866	281.0000
29.7958	249.0000
29.8050	287.0000
29.8142	261.0000
29.8234	284.0000
29.8327	252.0000
29.8419	298.0000
29.8511	282.0000
29.8603	232.0000
29.8696	270.0000
29.8788	268.0000
29.8880	252.0000
29.8972	308.0000
29.9064	292.0000
29.9157	275.0000
29.9249	273.0000
29.9341	267.0000
29.9433	261.0000
29.9526	255.0000
29.9618	272.0000
29.9710	283.0000
29.9802	279.0000
29.9894	298.0000
29.9987	303.0000
30.0079	274.0000
30.0171	259.0000
30.0263	300.0000
30.0356	275.0000
30.0448	287.0000
30.0540	264.0000
30.0632	298.0000
30.0725	284.0000
30.0817	266.0000
30.0909	277.0000
30.1001	283.0000
30.1093	270.0000
30.1186	301.0000
30.1278	264.0000
30.1370	298.0000
30.1462	277.0000
30.1555	300.0000
30.1647	282.0000
30.1739	274.0000
30.1831	247.0000
30.1923	300.0000
30.2016	280.0000
30.2108	269.0000
30.2200	267.0000
30.2292	307.0000
30.2385	280.0000
30.2477	294.0000
30.2569	282.0000
30.2661	297.0000
30.2754	277.0000
30.2846	294.0000
30.2938	297.0000
30.3030	287.0000
30.3122	271.0000
30.3215	273.0000
30.3307	281.0000
30.3399	273.0000
30.3491	245.0000
30.3584	262.0000
30.3676	268.0000
30.3768	265.0000
30.3860	269.0000
30.3952	233.0000
30.4045	299.0000
30.4137	288.0000
30.4229	283.0000
30.4321	259.0000
30.4414	286.0000
30.4506	286.0000
30.4598	304.0000
30.4690	270.0000
30.4782	276.0000
30.4875	271.0000
30.4967	284.0000
30.5059	259.0000
30.5151	284.0000
30.5244	262.0000
30.5336	271.0000
30.5428	264.0000
30.5520	265.0000
30.5613	299.0000
30.5705	246.0000
30.5797	283.0000
30.5889	278.0000
30.5981	290.0000
30.6074	247.0000
30.6166	267.0000
30.6258	278.0000
30.6350	247.0000
30.6443	275.0000
30.6535	273.0000
30.6627	246.0000
30.6719	256.0000
30.6811	245.0000
30.6904	272.0000
30.6996	269.0000
30.7088	260.0000
30.7180	248.0000
30.7273	274.0000
30.7365	271.0000
30.7457	286.0000
30.7549	285.0000
30.7642	299.0000
30.7734	255.0000
30.7826	255.0000
30.7918	247.0000
30.8010	295.0000
30.8103	287.0000
30.8195	296.0000
30.8287	284.0000
30.8379	293.0000
30.8472	277.0000
30.8564	272.0000
30.8656	281.0000
30.8748	272.0000
30.8840	276.0000
30.8933	272.0000
30.9025	280.0000
30.9117	245.0000
30.9209	253.0000
30.9302	278.0000
30.9394	254.0000
30.9486	297.0000
30.9578	268.0000
30.9671	289.0000
30.9763	289.0000
30.9855	276.0000
30.9947	251.0000
31.0039	270.0000
31.0132	281.0000
31.0224	273.0000
31.0316	310.0000
31.0408	246.0000
31.0501	254.0000
31.0593	253.0000
31.0685	258.0000
31.0777	267.0000
31.0869	270.0000
31.0962	273.0000
31.1054	269.0000
31.1146	280.0000
31.1238	256.0000
31.1331	289.0000
31.1423	298.0000
31.1515	276.0000
31.1607	277.0000
31.1699	290.0000
31.1792	269.0000
31.1884	266.0000
31.1976	283.0000
31.2068	258.0000
31.2161	278.0000
31.2253	251.0000
31.2345	260.0000
31.2437	296.0000
31.2530	252.0000
31.2622	263.0000
31.2714	284.0000
31.2806	309.0000
31.2898	275.0000
31.2991	244.0000
31.3083	305.0000
31.3175	262.0000
31.3267	276.0000
31.3360	256.0000
31.3452	280.0000
31.3544	251.0000
31.3636	278.0000
31.3728	306.0000
31.3821	274.0000
31.3913	276.0000
31.4005	241.0000
31.4097	263.0000
31.4190	280.0000
31.4282	273.0000
31.4374	281.0000
31.4466	270.0000
31.4559	259.0000
31.4651	263.0000
31.4743	267.0000
31.4835	265.0000
31.4927	249.0000
31.5020	251.0000
31.5112	256.0000
31.5204	281.0000
31.5296	266.0000
31.5389	289.0000
31.5481	291.0000
31.5573	296.0000
31.5665	279.0000
31.5757	249.0000
31.5850	271.0000
31.5942	273.0000
31.6034	302.0000
31.6126	260.0000
31.6219	279.0000
31.6311	260.0000
31.6403	263.0000
31.6495	258.0000
31.6587	291.0000
31.6680	272.0000
31.6772	282.0000
31.6864	263.0000
31.6956	300.0000
31.7049	290.0000
31.7141	264.0000
31.7233	298.0000
31.7325	271.0000
31.7418	253.0000
31.7510	287.0000
31.7602	255.0000
31.7694	267.0000
31.7786	273.0000
31.7879	261.0000
31.7971	310.0000
31.8063	274.0000
31.8155	273.0000
31.8248	281.0000
31.8340	272.0000
31.8432	252.0000
31.8524	283.0000
31.8616	281.0000
31.8709	244.0000
31.8801	273.0000
31.8893	270.0000
31.8985	290.0000
31.9078	283.0000
31.9170	244.0000
31.9262	310.0000
31.9354	241.0000
31.9447	275.0000
31.9539	283.0000
31.9631	309.0000
31.9723	275.0000
31.9815	286.0000
31.9908	265.0000
32.0000	250.0000
32.0092	264.0000
32.0184	241.0000
32.0277	279.0000
32.0369	273.0000
32.0461	280.0000
32.0553	283.0000
32.0645	267.0000
32.0738	257.0000
32.0830	273.0000
32.0922	265.0000
32.1014	303.0000
32.1107	276.0000
32.1199	258.0000
32.1291	263.0000
32.1383	267.0000
32.1476	268.0000
32.1568	243.0000
32.1660	309.0000
32.1752	274.0000
32.1844	287.0000
32.1937	271.0000
32.2029	290.0000
32.2121	265.0000
32.2213	288.0000
32.2306	240.0000
32.2398	308.0000
32.2490	258.0000
32.2582	281.0000
32.2674	291.0000
32.2767	277.0000
32.2859	281.0000
32.2951	246.0000
32.3043	273.0000
32.3136	272.0000
32.3228	275.0000
32.3320	275.0000
32.3412	255.0000
32.3504	284.0000
32.3597	291.0000
32.3689	288.0000
32.3781	288.0000
32.3873	277.0000
32.3966	253.0000
32.4058	274.0000
32.4150	259.0000
32.4242	252.0000
32.4335	290.0000
32.4427	265.0000
32.4519	268.0000
32.4611	276.0000
32.4703	260.0000
32.4796	284.0000
32.4888	259.0000
32.4980	261.0000
32.5072	268.0000
32.5165	303.0000
32.5257	297.0000
32.5349	295.0000
32.5441	275.0000
32.5533	256.0000
32.5626	264.0000
32.5718	280.0000
32.5810	281.0000
32.5902	248.0000
32.5995	299.0000
32.6087	247.0000
32.6179	287.0000
32.6271	287.0000
32.6364	278.0000
32.6456	274.0000
32.6548	252.0000
32.6640	280.0000
32.6732	260.0000
32.6825	238.0000
32.6917	265.0000
32.7009	288.0000
32.7101	276.0000
32.7194	250.0000
32.7286	300.0000
32.7378	251.0000
32.7470	290.0000
32.7562	274.0000
32.7655	287.0000
32.7747	255.0000
32.7839	254.0000
32.7931	269.0000
32.8024	272.0000
32.8116	265.0000
32.8208	264.0000
32.8300	255.0000
32.8392	260.0000
32.8485	299.0000
32.8577	283.0000
32.8669	260.0000
32.8761	275.0000
32.8854	297.0000
32.8946	288.0000
32.9038	276.0000
32.9130	275.0000
32.9223	279.0000
32.9315	285.0000
32.9407	270.0000
32.9499	281.0000
32.9591	308.0000
32.9684	270.0000
32.9776	271.0000
32.9868	248.0000
32.9960	285.0000
33.0053	274.0000
33.0145	258.0000
33.0237	275.0000
33.0329	273.0000
33.0421	272.0000
33.0514	293.0000
33.0606	272.0000
33.0698	276.0000
33.0790	289.0000
33.0883	255.0000
33.0975	291.0000
33.1067	266.0000
33.1159	259.0000
33.1252	286.0000
33.1344	286.0000
33.1436	265.0000
33.1528	261.0000
33.1620	277.0000
33.1713	276.0000
33.1805	254.0000
33.1897	268.0000
33.1989	255.0000
33.2082	316.0000
33.2174	281.0000
33.2266	291.0000
33.2358	302.0000
33.2450	287.0000
33.2543	288.0000
33.2635	278.0000
33.2727	267.0000
33.2819	259.0000
33.2912	282.0000
33.3004	321.0000
33.3096	272.0000
33.3188	303.0000
33.3281	265.0000
33.3373	257.0000
33.3465	298.0000
33.3557	279.0000
33.3649	286.0000
33.3742	274.0000
33.3834	264.0000
33.3926	295.0000
33.4018	251.0000
33.4111	259.0000
33.4203	291.0000
33.4295	280.0000
33.4387	275.0000
33.4479	271.0000
33.4572	276.0000
33.4664	273.0000
33.4756	276.0000
33.4848	271.0000
33.4941	291.0000
33.5033	264.0000
33.5125	295.0000
33.5217	295.0000
33.5309	244.0000
33.5402	289.0000
33.5494	289.0000
33.5586	271.0000
33.5678	274.0000
33.5771	260.0000
33.5863	253.0000
33.5955	277.0000
33.6047	293.0000
33.6140	246.0000
33.6232	279.0000
33.6324	254.0000
33.6416	260.0000
33.6508	272.0000
33.6601	263.0000
33.6693	241.0000
33.6785	248.0000
33.6877	263.0000
33.6970	274.0000
33.7062	272.0000
33.7154	242.0000
33.7246	278.0000
33.7338	251.0000
33.7431	266.0000
33.7523	270.0000
33.7615	244.0000
33.7707	290.0000
33.7800	279.0000
33.7892	256.0000
33.7984	274.0000
33.8076	258.0000
33.8169	286.0000
33.8261	275.0000
33.8353	299.0000
33.8445	255.0000
33.8537	277.0000
33.8630	262.0000
33.8722	274.0000
33.8814	285.0000
33.8906	286.0000
33.8999	261.0000
33.9091	244.0000
33.9183	281.0000
33.9275	302.0000
33.9367	263.0000
33.9460	265.0000
33.9552	251.0000
33.9644	259.0000
33.9736	276.0000
33.9829	253.0000
33.9921	271.0000
34.0013	249.0000
34.0105	254.0000
34.0197	268.0000
34.0290	288.0000
34.0382	290.0000
34.0474	274.0000
34.0566	270.0000
34.0659	268.0000
34.0751	286.0000
34.0843	270.0000
34.0935	258.0000
34.1028	259.0000
34.1120	263.0000
34.1212	269.0000
34.1304	252.0000
34.1396	290.0000
34.1489	235.0000
34.1581	256.0000
34.1673	252.0000
34.1765	284.0000
34.1858	261.0000
34.1950	276.0000
34.2042	249.0000
34.2134	264.0000
34.2226	249.0000
34.2319	279.0000
34.2411	272.0000
34.2503	259.0000
34.2595	257.0000
34.2688	256.0000
34.2780	266.0000
34.2872	254.0000
34.2964	271.0000
34.3057	251.0000
34.3149	222.0000
34.3241	252.0000
34.3333	248.0000
34.3425	279.0000
34.3518	269.0000
34.3610	228.0000
34.3702	268.0000
34.3794	254.0000
34.3887	264.0000
34.3979	287.0000
34.4071	282.0000
34.4163	226.0000
34.4255	268.0000
34.4348	279.0000
34.4440	224.0000
34.4532	279.0000
34.4624	237.0000
34.4717	260.0000
34.4809	236.0000
34.4901	254.0000
34.4993	271.0000
34.5086	260.0000
34.5178	266.0000
34.5270	289.0000
34.5362	224.0000
34.5454	252.0000
34.5547	215.0000
34.5639	251.0000
34.5731	237.0000
34.5823	269.0000
34.5916	271.0000
34.6008	278.0000
34.6100	270.0000
34.6192	240.0000
34.6284	231.0000
34.6377	253.0000
34.6469	247.0000
34.6561	241.0000
34.6653	248.0000
34.6746	265.0000
34.6838	298.0000
34.6930	264.0000
34.7022	224.0000
34.7114	214.0000
34.7207	286.0000
34.7299	249.0000
34.7391	245.0000
34.7483	254.0000
34.7576	240.0000
34.7668	260.0000
34.7760	259.0000
34.7852	256.0000
34.7945	251.0000
34.8037	220.0000
34.8129	223.0000
34.8221	253.0000
34.8313	252.0000
34.8406	251.0000
34.8498	215.0000
34.8590	245.0000
34.8682	265.0000
34.8775	277.0000
34.8867	242.0000
34.8959	265.0000
34.9051	261.0000
34.9143	219.0000
34.9236	226.0000
34.9328	286.0000
34.9420	268.0000
34.9512	261.0000
34.9605	280.0000
34.9697	237.0000
34.9789	254.0000
34.9881	248.0000
34.9974	244.0000
35.0066	260.0000
35.0158	256.0000
35.0250	236.0000
35.0342	243.0000
35.0435	231.0000
35.0527	259.0000
35.0619	207.0000
35.0711	263.0000
35.0804	244.0000
35.0896	237.0000
35.0988	241.0000
35.1080	223.0000
35.1172	229.0000
35.1265	213.0000
35.1357	238.0000
35.1449	243.0000
35.1541	207.0000
35.1634	269.0000
35.1726	246.0000
35.1818	249.0000
35.1910	222.0000
35.2002	261.0000
35.2095	257.0000
35.2187	247.0000
35.2279	233.0000
35.2371	244.0000
35.2464	223.0000
35.2556	249.0000
35.2648	232.0000
35.2740	221.0000
35.2833	208.0000
35.2925	224.0000
35.3017	264.0000
35.3109	231.0000
35.3201	248.0000
35.3294	220.0000
35.3386	228.0000
35.3478	233.0000
35.3570	250.0000
35.3663	238.0000
35.3755	225.0000
35.3847	240.0000
35.3939	211.0000
35.4031	229.0000
35.4124	231.0000
35.4216	226.0000
35.4308	240.0000
35.4400	225.0000
35.4493	227.0000
35.4585	225.0000
35.4677	214.0000
35.4769	274.0000
35.4862	233.0000
35.4954	207.0000
35.5046	203.0000
35.5138	207.0000
35.5230	217.0000
35.5323	236.0000
35.5415	234.0000
35.5507	229.0000
35.5599	226.0000
35.5692	234.0000
35.5784	213.0000
35.5876	215.0000
35.5968	190.0000
35.6060	219.0000
35.6153	242.0000
35.6245	219.0000
35.6337	218.0000
35.6429	212.0000
35.6522	239.0000
35.6614	219.0000
35.6706	209.0000
35.6798	202.0000
35.6891	207.0000
35.6983	219.0000
35.7075	235.0000
35.7167	203.0000
35.7259	190.0000
35.7352	190.0000
35.7444	197.0000
35.7536	194.0000
35.7628	218.0000
35.7721	193.0000
35.7813	171.0000
35.7905	199.0000
35.7997	208.0000
35.8089	198.0000
35.8182	214.0000
35.8274	217.0000
35.8366	205.0000
35.8458	215.0000
35.8551	218.0000
35.8643	210.0000
35.8735	203.0000
35.8827	222.0000
35.8919	213.0000
35.9012	209.0000
35.9104	238.0000
35.9196	187.0000
35.9288	212.0000
35.9381	198.0000
35.9473	215.0000
35.9565	207.0000
35.9657	210.0000
35.9750	191.0000
35.9842	200.0000
35.9934	214.0000
36.0026	192.0000
36.0118	210.0000
36.0211	190.0000
36.0303	230.0000
36.0395	202.0000
36.0487	207.0000
36.0580	193.0000
36.0672	216.0000
36.0764	187.0000
36.0856	196.0000
36.0948	188.0000
36.1041	199.0000
36.1133	194.0000
36.1225	197.0000
36.1317	193.0000
36.1410	204.0000
36.1502	194.0000
36.1594	199.0000
36.1686	217.0000
36.1779	193.0000
36.1871	180.0000
36.1963	208.0000
36.2055	208.0000
36.2147	211.0000
36.2240	185.0000
36.2332	185.0000
36.2424	174.0000
36.2516	186.0000
36.2609	180.0000
36.2701	177.0000
36.2793	183.0000
36.2885	176.0000
36.2977	189.0000
36.3070	205.0000
36.3162	164.0000
36.3254	198.0000
36.3346	171.0000
36.3439	186.0000
36.3531	209.0000
36.3623	208.0000
36.3715	180.0000
36.3807	199.0000
36.3900	192.0000
36.3992	187.0000
36.4084	186.0000
36.4176	188.0000
36.4269	185.0000
36.4361	199.0000
36.4453	184.0000
36.4545	190.0000
36.4638	188.0000
36.4730	195.0000
36.4822	170.0000
36.4914	152.0000
36.5006	194.0000
36.5099	163.0000
36.5191	165.0000
36.5283	178.0000
36.5375	181.0000
36.5468	178.0000
36.5560	144.0000
36.5652	184.0000
36.5744	186.0000
36.5836	196.0000
36.5929	161.0000
36.6021	197.0000
36.6113	173.0000
36.6205	180.0000
36.6298	194.0000
36.6390	181.0000
36.6482	161.0000
36.6574	186.0000
36.6667	181.0000
36.6759	174.0000
36.6851	160.0000
36.6943	167.0000
36.7035	178.0000
36.7128	161.0000
36.7220	210.0000
36.7312	166.0000
36.7404	160.0000
36.7497	187.0000
36.7589	193.0000
36.7681	166.0000
36.7773	147.0000
36.7865	173.0000
36.7958	189.0000
36.8050	162.0000
36.8142	158.0000
36.8234	190.0000
36.8327	184.0000
36.8419	179.0000
36.8511	171.0000
36.8603	199.0000
36.8696	162.0000
36.8788	177.0000
36.8880	174.0000
36.8972	184.0000
36.9064	176.0000
36.9157	154.0000
36.9249	191.0000
36.9341	159.0000
36.9433	162.0000
36.9526	177.0000
36.9618	160.0000
36.9710	171.0000
36.9802	172.0000
36.9894	188.0000
36.9987	174.0000
37.0079	159.0000
37.0171	167.0000
37.0263	177.0000
37.0356	166.0000
37.0448	170.0000
37.0540	141.0000
37.0632	172.0000
37.0724	158.0000
37.0817	182.0000
37.0909	188.0000
37.1001	164.0000
37.1093	176.0000
37.1186	153.0000
37.1278	157.0000
37.1370	181.0000
37.1462	157.0000
37.1555	153.0000
37.1647	183.0000
37.1739	166.0000
37.1831	168.0000
37.1923	184.0000
37.2016	191.0000
37.2108	171.0000
37.2200	181.0000
37.2292	155.0000
37.2385	173.0000
37.2477	182.0000
37.2569	192.0000
37.2661	181.0000
37.2753	193.0000
37.2846	222.0000
37.2938	264.0000
37.3030	301.0000
37.3122	380.0000
37.3215	441.0000
37.3307	438.0000
37.3399	390.0000
37.3491	308.0000
37.3584	263.0000
37.3676	211.0000
37.3768	178.0000
37.3860	173.0000
37.3952	186.0000
37.4045	180.0000
37.4137	171.0000
37.4229	164.0000
37.4321	147.0000
37.4414	174.0000
37.4506	171.0000
37.4598	177.0000
37.4690	164.0000
37.4782	172.0000
37.4875	179.0000
37.4967	170.0000
37.5059	181.0000
37.5151	170.0000
37.5244	209.0000
37.5336	239.0000
37.5428	277.0000
37.5520	331.0000
37.5612	294.0000
37.5705	270.0000
37.5797	230.0000
37.5889	184.0000
37.5981	185.0000
37.6074	173.0000
37.6166	170.0000
37.6258	143.0000
37.6350	185.0000
37.6443	162.0000
37.6535	161.0000
37.6627	160.0000
37.6719	154.0000
37.6811	135.0000
37.6904	152.0000
37.6996	135.0000
37.7088	145.0000
37.7180	160.0000
37.7273	152.0000
37.7365	188.0000
37.7457	153.0000
37.7549	156.0000
37.7641	144.0000
37.7734	156.0000
37.7826	173.0000
37.7918	157.0000
37.8010	173.0000
37.8103	150.0000
37.8195	171.0000
37.8287	158.0000
37.8379	165.0000
37.8472	156.0000
37.8564	160.0000
37.8656	162.0000
37.8748	156.0000
37.8840	143.0000
37.8933	154.0000
37.9025	142.0000
37.9117	140.0000
37.9209	144.0000
37.9302	130.0000
37.9394	158.0000
37.9486	155.0000
37.9578	157.0000
37.9670	161.0000
37.9763	168.0000
37.9855	157.0000
37.9947	145.0000
38.0039	129.0000
38.0132	138.0000
38.0224	138.0000
38.0316	152.0000
38.0408	140.0000
38.0501	129.0000
38.0593	157.0000
38.0685	133.0000
38.0777	146.0000
38.0869	161.0000
38.0962	127.0000
38.1054	131.0000
38.1146	142.0000
38.1238	143.0000
38.1331	151.0000
38.1423	129.0000
38.1515	151.0000
38.1607	159.0000
38.1699	177.0000
38.1792	142.0000
38.1884	163.0000
38.1976	158.0000
38.2068	139.0000
38.2161	174.0000
38.2253	144.0000
38.2345	162.0000
38.2437	134.0000
38.2529	167.0000
38.2622	168.0000
38.2714	140.0000
38.2806	154.0000
38.2898	158.0000
38.2991	141.0000
38.3083	156.0000
38.3175	170.0000
38.3267	155.0000
38.3360	147.0000
38.3452	138.0000
38.3544	161.0000
38.3636	139.0000
38.3728	136.0000
38.3821	147.0000
38.3913	148.0000
38.4005	164.0000
38.4097	147.0000
38.4190	129.0000
38.4282	144.0000
38.4374	139.0000
38.4466	152.0000
38.4558	130.0000
38.4651	146.0000
38.4743	154.0000
38.4835	146.0000
38.4927	156.0000
38.5020	149.0000
38.5112	149.0000
38.5204	162.0000
38.5296	135.0000
38.5389	150.0000
38.5481	158.0000
38.5573	148.0000
38.5665	157.0000
38.5757	174.0000
38.5850	170.0000
38.5942	138.0000
38.6034	138.0000
38.6126	128.0000
38.6219	143.0000
38.6311	163.0000
38.6403	151.0000
38.6495	132.0000
38.6587	135.0000
38.6680	158.0000
38.6772	122.0000
38.6864	139.0000
38.6956	137.0000
38.7049	139.0000
38.7141	129.0000
38.7233	145.0000
38.7325	134.0000
38.7417	157.0000
38.7510	133.0000
38.7602	133.0000
38.7694	156.0000
38.7786	132.0000
38.7879	131.0000
38.7971	156.0000
38.8063	139.0000
38.8155	140.0000
38.8248	133.0000
38.8340	137.0000
38.8432	145.0000
38.8524	132.0000
38.8616	153.0000
38.8709	160.0000
38.8801	125.0000
38.8893	138.0000
38.8985	134.0000
38.9078	132.0000
38.9170	127.0000
38.9262	146.0000
38.9354	160.0000
38.9446	139.0000
38.9539	148.0000
38.9631	150.0000
38.9723	145.0000
38.9815	145.0000
38.9908	137.0000
39.0000	149.0000
39.0092	148.0000
39.0184	140.0000
39.0277	166.0000
39.0369	170.0000
39.0461	128.0000
39.0553	119.0000
39.0645	119.0000
39.0738	153.0000
39.0830	146.0000
39.0922	138.0000
39.1014	136.0000
39.1107	131.0000
39.1199	136.0000
39.1291	147.0000
39.1383	148.0000
39.1475	155.0000
39.1568	133.0000
39.1660	151.0000
39.1752	134.0000
39.1844	141.0000
39.1937	141.0000
39.2029	116.0000
39.2121	138.0000
39.2213	162.0000
39.2306	160.0000
39.2398	144.0000
39.2490	149.0000
39.2582	147.0000
39.2674	132.0000
39.2767	147.0000
39.2859	142.0000
39.2951	125.0000
39.3043	123.0000
39.3136	125.0000
39.3228	124.0000
39.3320	160.0000
39.3412	143.0000
39.3504	142.0000
39.3597	145.0000
39.3689	137.0000
39.3781	135.0000
39.3873	147.0000
39.3966	148.0000
39.4058	156.0000
39.4150	125.0000
39.4242	133.0000
39.4334	130.0000
39.4427	143.0000
39.4519	163.0000
39.4611	133.0000
39.4703	135.0000
39.4796	139.0000
39.4888	129.0000
39.4980	134.0000
39.5072	148.0000
39.5165	139.0000
39.5257	148.0000
39.5349	139.0000
39.5441	144.0000
39.5533	146.0000
39.5626	130.0000
39.5718	123.0000
39.5810	143.0000
39.5902	158.0000
39.5995	146.0000
39.6087	145.0000
39.6179	147.0000
39.6271	143.0000
39.6363	129.0000
39.6456	118.0000
39.6548	132.0000
39.6640	150.0000
39.6732	159.0000
39.6825	128.0000
39.6917	152.0000
39.7009	133.0000
39.7101	155.0000
39.7194	130.0000
39.7286	164.0000
39.7378	136.0000
39.7470	147.0000
39.7562	141.0000
39.7655	150.0000
39.7747	140.0000
39.7839	127.0000
39.7931	139.0000
39.8024	128.0000
39.8116	139.0000
39.8208	130.0000
39.8300	145.0000
39.8392	110.0000
39.8485	125.0000
39.8577	151.0000
39.8669	155.0000
39.8761	152.0000
39.8854	134.0000
39.8946	147.0000
39.9038	158.0000
39.9130	131.0000
39.9222	115.0000
39.9315	140.0000
39.9407	135.0000
39.9499	119.0000
39.9591	155.0000
39.9684	139.0000
39.9776	143.0000
39.9868	147.0000
39.9960	113.0000
40.0053	137.0000
40.0145	161.0000
40.0237	154.0000
40.0329	142.0000
40.0421	121.0000
40.0514	139.0000
40.0606	163.0000
40.0698	140.0000
40.0790	140.0000
40.0883	143.0000
40.0975	137.0000
40.1067	151.0000
40.1159	143.0000
40.1251	157.0000
40.1344	131.0000
40.1436	135.0000
40.1528	145.0000
40.1620	128.0000
40.1713	148.0000
40.1805	146.0000
40.1897	111.0000
40.1989	146.0000
40.2082	132.0000
40.2174	139.0000
40.2266	153.0000
40.2358	148.0000
40.2450	134.0000
40.2543	139.0000
40.2635	152.0000
40.2727	142.0000
40.2819	132.0000
40.2912	122.0000
40.3004	119.0000
40.3096	144.0000
40.3188	109.0000
40.3280	137.0000
40.3373	125.0000
40.3465	183.0000
40.3557	151.0000
40.3649	143.0000
40.3742	149.0000
40.3834	133.0000
40.3926	140.0000
40.4018	134.0000
40.4111	134.0000
40.4203	128.0000
40.4295	134.0000
40.4387	147.0000
40.4479	114.0000
40.4572	137.0000
40.4664	133.0000
40.4756	162.0000
40.4848	131.0000
40.4941	136.0000
40.5033	140.0000
40.5125	147.0000
40.5217	147.0000
40.5309	131.0000
40.5402	131.0000
40.5494	123.0000
40.5586	149.0000
40.5678	142.0000
40.5771	139.0000
40.5863	142.0000
40.5955	123.0000
40.6047	136.0000
40.6139	121.0000
40.6232	129.0000
40.6324	145.0000
40.6416	143.0000
40.6508	139.0000
40.6601	153.0000
40.6693	125.0000
40.6785	129.0000
40.6877	133.0000
40.6970	165.0000
40.7062	142.0000
40.7154	137.0000
40.7246	119.0000
40.7338	139.0000
40.7431	140.0000
40.7523	135.0000
40.7615	148.0000
40.7707	146.0000
40.7800	152.0000
40.7892	138.0000
40.7984	148.0000
40.8076	145.0000
40.8168	137.0000
40.8261	135.0000
40.8353	146.0000
40.8445	145.0000
40.8537	142.0000
40.8630	119.0000
40.8722	147.0000
40.8814	125.0000
40.8906	129.0000
40.8999	138.0000
40.9091	140.0000
40.9183	115.0000
40.9275	121.0000
40.9367	131.0000
40.9460	148.0000
40.9552	131.0000
40.9644	150.0000
40.9736	153.0000
40.9829	118.0000
40.9921	118.0000
41.0013	131.0000
41.0105	127.0000
41.0197	134.0000
41.0290	139.0000
41.0382	133.0000
41.0474	129.0000
41.0566	132.0000
41.0659	144.0000
41.0751	139.0000
41.0843	112.0000
41.0935	123.0000
41.1027	116.0000
41.1120	142.0000
41.1212	129.0000
41.1304	116.0000
41.1396	146.0000
41.1489	130.0000
41.1581	163.0000
41.1673	147.0000
41.1765	160.0000
41.1858	144.0000
41.1950	144.0000
41.2042	129.0000
41.2134	141.0000
41.2226	113.0000
41.2319	126.0000
41.2411	136.0000
41.2503	133.0000
41.2595	119.0000
41.2688	127.0000
41.2780	128.0000
41.2872	121.0000
41.2964	128.0000
41.3056	148.0000
41.3149	147.0000
41.3241	127.0000
41.3333	136.0000
41.3425	136.0000
41.3518	115.0000
41.3610	144.0000
41.3702	121.0000
41.3794	144.0000
41.3887	139.0000
41.3979	129.0000
41.4071	142.0000
41.4163	131.0000
41.4255	135.0000
41.4348	131.0000
41.4440	119.0000
41.4532	146.0000
41.4624	137.0000
41.4717	145.0000
41.4809	143.0000
41.4901	126.0000
41.4993	129.0000
41.5085	114.0000
41.5178	146.0000
41.5270	127.0000
41.5362	123.0000
41.5454	142.0000
41.5547	147.0000
41.5639	164.0000
41.5731	110.0000
41.5823	116.0000
41.5915	132.0000
41.6008	127.0000
41.6100	149.0000
41.6192	145.0000
41.6284	146.0000
41.6377	153.0000
41.6469	141.0000
41.6561	157.0000
41.6653	141.0000
41.6746	142.0000
41.6838	131.0000
41.6930	119.0000
41.7022	139.0000
41.7114	142.0000
41.7207	128.0000
41.7299	141.0000
41.7391	133.0000
41.7483	132.0000
41.7576	127.0000
41.7668	134.0000
41.7760	163.0000
41.7852	148.0000
41.7944	156.0000
41.8037	162.0000
41.8129	140.0000
41.8221	152.0000
41.8313	151.0000
41.8406	128.0000
41.8498	151.0000
41.8590	143.0000
41.8682	144.0000
41.8775	133.0000
41.8867	142.0000
41.8959	135.0000
41.9051	133.0000
41.9143	129.0000
41.9236	131.0000
41.9328	119.0000
41.9420	142.0000
41.9512	125.0000
41.9605	148.0000
41.9697	129.0000
41.9789	129.0000
41.9881	137.0000
41.9973	124.0000
42.0066	138.0000
42.0158	128.0000
42.0250	136.0000
42.0342	122.0000
42.0435	124.0000
42.0527	143.0000
42.0619	129.0000
42.0711	115.0000
42.0804	126.0000
42.0896	140.0000
42.0988	159.0000
42.1080	144.0000
42.1172	125.0000
42.1265	158.0000
42.1357	160.0000
42.1449	129.0000
42.1541	136.0000
42.1634	159.0000
42.1726	136.0000
42.1818	165.0000
42.1910	133.0000
42.2002	137.0000
42.2095	133.0000
42.2187	157.0000
42.2279	153.0000
42.2371	126.0000
42.2464	128.0000
42.2556	147.0000
42.2648	141.0000
42.2740	129.0000
42.2832	132.0000
42.2925	141.0000
42.3017	130.0000
42.3109	125.0000
42.3201	137.0000
42.3294	144.0000
42.3386	140.0000
42.3478	140.0000
42.3570	133.0000
42.3663	144.0000
42.3755	134.0000
42.3847	144.0000
42.3939	122.0000
42.4031	158.0000
42.4124	143.0000
42.4216	117.0000
42.4308	147.0000
42.4400	154.0000
42.4493	110.0000
42.4585	133.0000
42.4677	141.0000
42.4769	151.0000
42.4861	119.0000
42.4954	138.0000
42.5046	115.0000
42.5138	162.0000
42.5230	135.0000
42.5323	131.0000
42.5415	134.0000
42.5507	130.0000
42.5599	134.0000
42.5692	114.0000
42.5784	120.0000
42.5876	128.0000
42.5968	141.0000
42.6060	138.0000
42.6153	131.0000
42.6245	146.0000
42.6337	143.0000
42.6429	119.0000
42.6522	152.0000
42.6614	128.0000
42.6706	122.0000
42.6798	122.0000
42.6890	159.0000
42.6983	116.0000
42.7075	128.0000
42.7167	137.0000
42.7259	156.0000
42.7352	132.0000
42.7444	154.0000
42.7536	135.0000
42.7628	151.0000
42.7720	133.0000
42.7813	137.0000
42.7905	134.0000
42.7997	132.0000
42.8089	145.0000
42.8182	125.0000
42.8274	151.0000
42.8366	128.0000
42.8458	126.0000
42.8551	146.0000
42.8643	120.0000
42.8735	134.0000
42.8827	143.0000
42.8919	124.0000
42.9012	127.0000
42.9104	129.0000
42.9196	115.0000
42.9288	125.0000
42.9381	141.0000
42.9473	135.0000
42.9565	151.0000
42.9657	116.0000
42.9749	141.0000
42.9842	136.0000
42.9934	141.0000
43.0026	120.0000
43.0118	162.0000
43.0211	125.0000
43.0303	154.0000
43.0395	144.0000
43.0487	131.0000
43.0580	115.0000
43.0672	139.0000
43.0764	141.0000
43.0856	137.0000
43.0948	148.0000
43.1041	142.0000
43.1133	125.0000
43.1225	118.0000
43.1317	120.0000
43.1410	138.0000
43.1502	138.0000
43.1594	139.0000
43.1686	149.0000
43.1778	164.0000
43.1871	133.0000
43.1963	114.0000
43.2055	152.0000
43.2147	148.0000
43.2240	137.0000
43.2332	153.0000
43.2424	108.0000
43.2516	160.0000
43.2609	143.0000
43.2701	164.0000
43.2793	139.0000
43.2885	117.0000
43.2977	135.0000
43.3070	151.0000
43.3162	119.0000
43.3254	163.0000
43.3346	179.0000
43.3439	190.0000
43.3531	230.0000
43.3623	266.0000
43.3715	302.0000
43.3807	299.0000
43.3900	252.0000
43.3992	183.0000
43.4084	171.0000
43.4176	132.0000
43.4269	154.0000
43.4361	143.0000
43.4453	137.0000
43.4545	128.0000
43.4637	154.0000
43.4730	121.0000
43.4822	138.0000
43.4914	141.0000
43.5006	127.0000
43.5099	127.0000
43.5191	120.0000
43.5283	142.0000
43.5375	125.0000
43.5468	151.0000
43.5560	139.0000
43.5652	122.0000
43.5744	134.0000
43.5836	137.0000
43.5929	140.0000
43.6021	143.0000
43.6113	135.0000
43.6205	154.0000
43.6298	182.0000
43.6390	216.0000
43.6482	215.0000
43.6574	198.0000
43.6666	163.0000
43.6759	174.0000
43.6851	149.0000
43.6943	131.0000
43.7035	129.0000
43.7128	132.0000
43.7220	144.0000
43.7312	146.0000
43.7404	123.0000
43.7497	157.0000
43.7589	115.0000
43.7681	122.0000
43.7773	146.0000
43.7865	149.0000
43.7958	125.0000
43.8050	148.0000
43.8142	136.0000
43.8234	144.0000
43.8327	138.0000
43.8419	119.0000
43.8511	142.0000
43.8603	143.0000
43.8695	129.0000
43.8788	124.0000
43.8880	133.0000
43.8972	131.0000
43.9064	126.0000
43.9157	128.0000
43.9249	146.0000
43.9341	127.0000
43.9433	134.0000
43.9525	129.0000
43.9618	142.0000
43.9710	107.0000
43.9802	137.0000
43.9894	126.0000
43.9987	137.0000
44.0079	129.0000
44.0171	105.0000
44.0263	129.0000
44.0356	141.0000
44.0448	132.0000
44.0540	127.0000
44.0632	127.0000
44.0724	156.0000
44.0817	131.0000
44.0909	132.0000
44.1001	143.0000
44.1093	147.0000
44.1186	110.0000
44.1278	126.0000
44.1370	136.0000
44.1462	134.0000
44.1554	141.0000
44.1647	126.0000
44.1739	147.0000
44.1831	120.0000
44.1923	132.0000
44.2016	147.0000
44.2108	127.0000
44.2200	126.0000
44.2292	128.0000
44.2385	128.0000
44.2477	130.0000
44.2569	140.0000
44.2661	124.0000
44.2753	139.0000
44.2846	104.0000
44.2938	126.0000
44.3030	133.0000
44.3122	120.0000
44.3215	121.0000
44.3307	132.0000
44.3399	127.0000
44.3491	130.0000
44.3583	132.0000
44.3676	127.0000
44.3768	119.0000
44.3860	128.0000
44.3952	137.0000
44.4045	134.0000
44.4137	133.0000
44.4229	125.0000
44.4321	116.0000
44.4414	149.0000
44.4506	129.0000
44.4598	122.0000
44.4690	112.0000
44.4782	116.0000
44.4875	142.0000
44.4967	132.0000
44.5059	118.0000
44.5151	139.0000
44.5244	114.0000
44.5336	136.0000
44.5428	134.0000
44.5520	136.0000
44.5612	146.0000
44.5705	119.0000
44.5797	127.0000
44.5889	117.0000
44.5981	137.0000
44.6074	118.0000
44.6166	121.0000
44.6258	120.0000
44.6350	105.0000
44.6442	123.0000
44.6535	129.0000
44.6627	111.0000
44.6719	148.0000
44.6811	124.0000
44.6904	148.0000
44.6996	146.0000
44.7088	122.0000
44.7180	115.0000
44.7273	141.0000
44.7365	139.0000
44.7457	134.0000
44.7549	123.0000
44.7641	130.0000
44.7734	119.0000
44.7826	116.0000
44.7918	119.0000
44.8010	142.0000
44.8103	120.0000
44.8195	119.0000
44.8287	129.0000
44.8379	113.0000
44.8471	140.0000
44.8564	110.0000
44.8656	137.0000
44.8748	107.0000
44.8840	115.0000
44.8933	123.0000
44.9025	125.0000
44.9117	123.0000
44.9209	148.0000
44.9302	102.0000
44.9394	118.0000
44.9486	132.0000
44.9578	123.0000
44.9670	126.0000
44.9763	135.0000
44.9855	138.0000
44.9947	125.0000
45.0039	120.0000
45.0132	134.0000
45.0224	128.0000
45.0316	117.0000
45.0408	131.0000
45.0500	101.0000
45.0593	121.0000
45.0685	131.0000
45.0777	114.0000
45.0869	107.0000
45.0962	137.0000
45.1054	124.0000
45.1146	130.0000
45.1238	100.0000
45.1330	119.0000
45.1423	125.0000
45.1515	130.0000
45.1607	112.0000
45.1699	114.0000
45.1792	126.0000
45.1884	109.0000
45.1976	123.0000
45.2068	113.0000
45.2161	123.0000
45.2253	123.0000
45.2345	122.0000
45.2437	104.0000
45.2529	135.0000
45.2622	134.0000
45.2714	117.0000
45.2806	121.0000
45.2898	124.0000
45.2991	115.0000
45.3083	141.0000
45.3175	110.0000
45.3267	133.0000
45.3359	125.0000
45.3452	108.0000
45.3544	137.0000
45.3636	125.0000
45.3728	124.0000
45.3821	131.0000
45.3913	105.0000
45.4005	119.0000
45.4097	113.0000
45.4190	146.0000
45.4282	105.0000
45.4374	119.0000
45.4466	113.0000
45.4558	111.0000
45.4651	121.0000
45.4743	117.0000
45.4835	106.0000
45.4927	125.0000
45.5020	102.0000
45.5112	105.0000
45.5204	107.0000
45.5296	112.0000
45.5388	114.0000
45.5481	122.0000
45.5573	122.0000
45.5665	118.0000
45.5757	126.0000
45.5850	123.0000
45.5942	119.0000
45.6034	124.0000
45.6126	131.0000
45.6219	105.0000
45.6311	114.0000
45.6403	117.0000
45.6495	119.0000
45.6587	113.0000
45.6680	127.0000
45.6772	127.0000
45.6864	124.0000
45.6956	128.0000
45.7049	124.0000
45.7141	120.0000
45.7233	118.0000
45.7325	112.0000
45.7417	119.0000
45.7510	112.0000
45.7602	131.0000
45.7694	128.0000
45.7786	132.0000
45.7879	103.0000
45.7971	119.0000
45.8063	120.0000
45.8155	128.0000
45.8247	122.0000
45.8340	111.0000
45.8432	115.0000
45.8524	150.0000
45.8616	130.0000
45.8709	115.0000
45.8801	113.0000
45.8893	103.0000
45.8985	132.0000
45.9078	123.0000
45.9170	101.0000
45.9262	119.0000
45.9354	140.0000
45.9446	122.0000
45.9539	119.0000
45.9631	123.0000
45.9723	124.0000
45.9815	120.0000
45.9908	104.0000
46.0000	103.0000
46.0092	125.0000
46.0184	98.0000
46.0276	135.0000
46.0369	110.0000
46.0461	118.0000
46.0553	136.0000
46.0645	113.0000
46.0738	91.0000
46.0830	115.0000
46.0922	122.0000
46.1014	122.0000
46.1107	119.0000
46.1199	123.0000
46.1291	126.0000
46.1383	114.0000
46.1475	115.0000
46.1568	107.0000
46.1660	121.0000
46.1752	116.0000
46.1844	112.0000
46.1937	116.0000
46.2029	117.0000
46.2121	127.0000
46.2213	116.0000
46.2305	112.0000
46.2398	115.0000
46.2490	110.0000
46.2582	108.0000
46.2674	137.0000
46.2767	136.0000
46.2859	127.0000
46.2951	122.0000
46.3043	108.0000
46.3135	132.0000
46.3228	133.0000
46.3320	109.0000
46.3412	121.0000
46.3504	107.0000
46.3597	101.0000
46.3689	119.0000
46.3781	94.0000
46.3873	126.0000
46.3966	111.0000
46.4058	135.0000
46.4150	106.0000
46.4242	115.0000
46.4334	112.0000
46.4427	111.0000
46.4519	114.0000
46.4611	88.0000
46.4703	144.0000
46.4796	99.0000
46.4888	116.0000
46.4980	106.0000
46.5072	103.0000
46.5164	96.0000
46.5257	99.0000
46.5349	112.0000
46.5441	93.0000
46.5533	95.0000
46.5626	112.0000
46.5718	119.0000
46.5810	102.0000
46.5902	117.0000
46.5995	113.0000
46.6087	128.0000
46.6179	114.0000
46.6271	130.0000
46.6363	102.0000
46.6456	112.0000
46.6548	119.0000
46.6640	115.0000
46.6732	115.0000
46.6825	107.0000
46.6917	109.0000
46.7009	113.0000
46.7101	113.0000
46.7193	97.0000
46.7286	120.0000
46.7378	116.0000
46.7470	135.0000
46.7562	105.0000
46.7655	101.0000
46.7747	117.0000
46.7839	108.0000
46.7931	128.0000
46.8024	106.0000
46.8116	124.0000
46.8208	111.0000
46.8300	123.0000
46.8392	101.0000
46.8485	126.0000
46.8577	107.0000
46.8669	122.0000
46.8761	106.0000
46.8854	110.0000
46.8946	100.0000
46.9038	130.0000
46.9130	112.0000
46.9222	124.0000
46.9315	127.0000
46.9407	107.0000
46.9499	112.0000
46.9591	110.0000
46.9684	99.0000
46.9776	93.0000
46.9868	109.0000
46.9960	112.0000
47.0052	124.0000
47.0145	96.0000
47.0237	104.0000
47.0329	101.0000
47.0421	119.0000
47.0514	106.0000
47.0606	111.0000
47.0698	107.0000
47.0790	114.0000
47.0883	124.0000
47.0975	127.0000
47.1067	107.0000
47.1159	102.0000
47.1251	112.0000
47.1344	109.0000
47.1436	103.0000
47.1528	97.0000
47.1620	103.0000
47.1713	101.0000
47.1805	121.0000
47.1897	100.0000
47.1989	128.0000
47.2081	102.0000
47.2174	107.0000
47.2266	115.0000
47.2358	109.0000
47.2450	111.0000
47.2543	96.0000
47.2635	105.0000
47.2727	122.0000
47.2819	107.0000
47.2912	101.0000
47.3004	112.0000
47.3096	98.0000
47.3188	123.0000
47.3280	93.0000
47.3373	110.0000
47.3465	115.0000
47.3557	108.0000
47.3649	125.0000
47.3742	109.0000
47.3834	123.0000
47.3926	117.0000
47.4018	107.0000
47.4110	91.0000
47.4203	99.0000
47.4295	118.0000
47.4387	109.0000
47.4479	99.0000
47.4572	107.0000
47.4664	109.0000
47.4756	124.0000
47.4848	108.0000
47.4940	110.0000
47.5033	90.0000
47.5125	124.0000
47.5217	118.0000
47.5309	98.0000
47.5402	106.0000
47.5494	119.0000
47.5586	113.0000
47.5678	119.0000
47.5771	115.0000
47.5863	105.0000
47.5955	122.0000
47.6047	91.0000
47.6139	100.0000
47.6232	121.0000
47.6324	120.0000
47.6416	104.0000
47.6508	91.0000
47.6601	101.0000
47.6693	102.0000
47.6785	108.0000
47.6877	97.0000
47.6969	101.0000
47.7062	121.0000
47.7154	99.0000
47.7246	117.0000
47.7338	136.0000
47.7431	101.0000
47.7523	107.0000
47.7615	104.0000
47.7707	126.0000
47.7800	114.0000
47.7892	122.0000
47.7984	104.0000
47.8076	104.0000
47.8168	93.0000
47.8261	90.0000
47.8353	96.0000
47.8445	95.0000
47.8537	118.0000
47.8630	116.0000
47.8722	108.0000
47.8814	95.0000
47.8906	108.0000
47.8998	88.0000
47.9091	105.0000
47.9183	104.0000
47.9275	95.0000
47.9367	111.0000
47.9460	97.0000
47.9552	107.0000
47.9644	113.0000
47.9736	109.0000
47.9829	105.0000
47.9921	98.0000
48.0013	104.0000
