11.0000	-30.2820
11.0092	11.1022
11.0184	-1.5129
11.0277	-4.1273
11.0369	38.2589
11.0461	-26.3541
11.0553	-44.9664
11.0646	28.4219
11.0738	8.8109
11.0830	-20.7994
11.0922	-1.4090
11.1014	3.9821
11.1107	-41.6261
11.1199	47.7663
11.1291	-18.8405
11.1383	35.5533
11.1476	4.9479
11.1568	53.3431
11.1660	35.7390
11.1752	15.1356
11.1845	47.5328
11.1937	31.9308
11.2029	-28.6705
11.2121	-40.7770
11.2213	32.1172
11.2306	33.0121
11.2398	-30.0923
11.2490	63.8040
11.2582	-36.2991
11.2675	15.5986
11.2767	15.4969
11.2859	41.3959
11.2951	88.2957
11.3043	74.1961
11.3136	82.0972
11.3228	37.9989
11.3320	34.9014
11.3412	6.8046
11.3505	2.7084
11.3597	37.6129
11.3689	-23.4818
11.3781	26.4241
11.3874	40.3307
11.3966	-4.7621
11.4058	15.1459
11.4150	80.0546
11.4242	15.9639
11.4335	47.8739
11.4427	18.7847
11.4519	30.6961
11.4611	26.6082
11.4704	-12.4790
11.4796	22.4344
11.4888	19.3486
11.4980	-2.7366
11.5072	55.1790
11.5165	44.0952
11.5257	-4.9879
11.5349	37.9297
11.5441	-10.1520
11.5534	69.7670
11.5626	24.6866
11.5718	-7.3930
11.5810	5.5280
11.5902	-38.5502
11.5995	55.3722
11.6087	16.2953
11.6179	35.2191
11.6271	40.1436
11.6364	-23.9313
11.6456	22.9946
11.6548	7.9211
11.6640	42.8483
11.6733	9.7763
11.6825	26.7049
11.6917	36.6342
11.7009	46.5641
11.7101	-15.5052
11.7194	8.4262
11.7286	37.3582
11.7378	17.2910
11.7470	42.2244
11.7563	-18.8415
11.7655	-38.9067
11.7747	30.0288
11.7839	25.9649
11.7931	71.9018
11.8024	51.8393
11.8116	3.7776
11.8208	-0.2835
11.8300	-26.3439
11.8393	-9.4325
11.8485	28.4796
11.8577	19.3923
11.8669	-0.6942
11.8762	41.2199
11.8854	50.1347
11.8946	-41.9497
11.9038	-17.0335
11.9130	-36.1167
11.9223	50.8009
11.9315	8.7192
11.9407	0.6381
11.9499	-21.4422
11.9592	4.4781
11.9684	-25.6009
11.9776	12.3208
11.9868	-16.7568
11.9960	10.1663
12.0053	3.0900
12.0145	12.0145
12.0237	29.9396
12.0329	-25.1345
12.0422	-16.2080
12.0514	7.7192
12.0606	14.6471
12.0698	5.5757
12.0791	-26.4951
12.0883	-5.0213
12.0975	3.4531
12.1067	32.9282
12.1159	49.4040
12.1252	18.8805
12.1344	9.3577
12.1436	59.8356
12.1528	19.3141
12.1621	69.7934
12.1713	39.2733
12.1805	51.7539
12.1897	42.2352
12.1989	-6.2828
12.2082	-1.8001
12.2174	5.6833
12.2266	31.1673
12.2358	-6.3479
12.2451	12.1375
12.2543	25.6236
12.2635	18.1105
12.2727	11.5979
12.2819	-6.9139
12.2912	43.5750
12.3004	2.0646
12.3096	-10.4452
12.3188	59.0458
12.3281	13.5374
12.3373	3.0297
12.3465	28.5227
12.3557	39.0164
12.3650	4.5108
12.3742	27.0058
12.3834	-23.4984
12.3926	48.9980
12.4018	32.4952
12.4111	-14.0070
12.4203	38.4915
12.4295	39.9907
12.4387	12.4906
12.4480	2.9911
12.4572	18.4924
12.4664	27.9943
12.4756	14.4970
12.4848	8.0003
12.4941	-28.4957
12.5033	7.0090
12.5125	-12.4856
12.5217	18.0204
12.5310	16.5272
12.5402	40.0346
12.5494	3.5428
12.5586	16.0516
12.5679	-54.4389
12.5771	61.0713
12.5863	30.5822
12.5955	-7.9062
12.6047	-3.3940
12.6140	-3.8810
12.6232	19.6326
12.6324	-26.8531
12.6416	21.6619
12.6509	49.1776
12.6601	-2.3060
12.6693	46.2111
12.6785	-22.2711
12.6877	-9.7527
12.6970	-13.2335
12.7062	48.2863
12.7154	17.8068
12.7246	30.3280
12.7339	-3.1501
12.7431	5.3725
12.7523	-29.1042
12.7615	-2.5803
12.7707	12.9444
12.7800	-16.5303
12.7892	2.9957
12.7984	-0.4776
12.8076	48.0498
12.8169	48.5779
12.8261	21.1067
12.8353	30.6361
12.8445	46.1663
12.8538	3.6971
12.8630	11.2286
12.8722	-30.2392
12.8814	64.2937
12.8906	18.8273
12.8999	-31.6384
12.9091	-0.1035
12.9183	31.4322
12.9275	0.9685
12.9368	-22.4944
12.9460	-26.6351
12.9552	45.2249
12.9644	45.0856
12.9736	34.9469
12.9829	-19.1910
12.9921	35.6718
13.0013	21.5352
13.0105	30.3993
13.0198	27.2642
13.0290	18.1297
13.0382	-19.0041
13.0474	6.8627
13.0567	7.7303
13.0659	56.5986
13.0751	13.4675
13.0843	-8.6629
13.0935	-4.7925
13.1028	-1.9215
13.1120	-3.0498
13.1212	3.8225
13.1304	60.6956
13.1397	42.5694
13.1489	7.4438
13.1581	11.3190
13.1673	16.1948
13.1765	15.0713
13.1858	25.9485
13.1950	-7.1736
13.2042	18.7050
13.2134	5.5842
13.2227	49.4642
13.2319	49.3448
13.2411	16.2261
13.2503	59.1082
13.2596	30.9909
13.2688	6.8742
13.2780	25.7583
13.2872	7.6431
13.2964	18.5285
13.3057	21.4147
13.3149	42.3015
13.3241	-13.8110
13.3333	-1.9228
13.3426	17.9661
13.3518	29.8557
13.3610	11.7460
13.3702	46.6369
13.3794	-6.4714
13.3887	42.4209
13.3979	-14.6861
13.4071	-4.7924
13.4163	52.1020
13.4256	19.9971
13.4348	23.8929
13.4440	21.7893
13.4532	6.6865
13.4624	22.5843
13.4717	8.4828
13.4809	-3.6179
13.4901	21.2820
13.4993	7.1825
13.5086	16.0838
13.5178	27.9858
13.5270	-3.1116
13.5362	-33.2082
13.5455	17.6958
13.5547	13.6005
13.5639	-21.4941
13.5731	-12.6515
13.5823	17.1919
13.5916	10.0359
13.6008	-2.1194
13.6100	24.7260
13.6192	-5.4280
13.6285	64.4188
13.6377	-9.7338
13.6469	4.1144
13.6561	45.9632
13.6653	-13.1873
13.6746	8.6629
13.6838	17.5138
13.6930	24.3654
13.7022	-4.7824
13.7115	14.0706
13.7207	20.9242
13.7299	6.7785
13.7391	16.6336
13.7484	-7.5107
13.7576	-15.6544
13.7668	12.2027
13.7760	-7.9395
13.7852	49.9189
13.7945	53.7781
13.8037	-45.3621
13.8129	-6.5016
13.8221	-6.6404
13.8314	-13.7785
13.8406	-2.9159
13.8498	11.9474
13.8590	24.8113
13.8682	27.6760
13.8775	53.5413
13.8867	17.4073
13.8959	-6.7260
13.9051	-4.8586
13.9144	25.0095
13.9236	11.8783
13.9328	30.7477
13.9420	-7.3821
13.9512	11.4887
13.9605	2.3602
13.9697	21.2325
13.9789	18.1054
13.9881	23.9789
13.9974	45.8532
14.0066	9.7282
14.0158	5.6038
14.0250	30.4802
14.0343	-10.6428
14.0435	35.2349
14.0527	38.1133
14.0619	3.9924
14.0711	30.8722
14.0804	21.7526
14.0896	21.6338
14.0988	15.5156
14.1080	17.3982
14.1173	-16.7186
14.1265	2.1653
14.1357	26.0499
14.1449	35.9352
14.1541	43.8211
14.1634	23.7078
14.1726	13.5951
14.1818	6.4832
14.1910	19.3719
14.2003	40.2613
14.2095	26.1514
14.2187	36.0422
14.2279	-15.0664
14.2372	-8.1742
14.2464	37.7186
14.2556	5.6122
14.2648	-39.4936
14.2740	-5.1295
14.2833	60.2353
14.2925	13.6008
14.3017	66.9670
14.3109	2.3339
14.3202	32.7015
14.3294	44.0697
14.3386	28.4387
14.3478	28.8083
14.3570	38.1786
14.3663	18.5496
14.3755	29.9213
14.3847	24.2937
14.3939	7.6667
14.4032	-0.9595
14.4124	1.4149
14.4216	-0.2099
14.4308	2.1659
14.4401	18.5424
14.4493	48.9196
14.4585	13.2975
14.4677	60.6760
14.4769	-10.9447
14.4862	23.4353
14.4954	23.8159
14.5046	14.1972
14.5138	35.5792
14.5231	15.9619
14.5323	-16.6547
14.5415	-4.2706
14.5507	-2.8859
14.5599	2.4996
14.5692	48.8857
14.5784	36.2726
14.5876	4.6601
14.5968	0.0483
14.6061	19.4372
14.6153	66.8267
14.6245	28.2170
14.6337	18.6079
14.6429	8.9996
14.6522	12.3919
14.6614	11.7849
14.6706	5.1786
14.6798	37.5730
14.6891	20.9681
14.6983	37.3639
14.7075	-16.2397
14.7167	-12.8425
14.7260	6.5553
14.7352	37.9538
14.7444	4.3530
14.7536	-1.2471
14.7628	0.1535
14.7721	8.5548
14.7813	12.9567
14.7905	20.3594
14.7997	-27.2373
14.8090	34.1667
14.8182	33.5714
14.8274	59.9768
14.8366	41.3829
14.8458	34.7897
14.8551	51.1972
14.8643	35.6053
14.8735	42.0141
14.8827	24.4237
14.8920	18.8339
14.9012	33.2448
14.9104	23.6564
14.9196	36.0686
14.9289	15.4816
14.9381	20.8953
14.9473	5.3096
14.9565	-13.2754
14.9657	1.1403
14.9750	24.5568
14.9842	13.9738
14.9934	-18.6084
15.0026	8.8101
15.0119	40.2292
15.0211	21.6491
15.0303	15.0696
15.0395	27.4908
15.0487	26.9127
15.0580	47.3353
15.0672	19.7586
15.0764	17.1826
15.0856	10.6072
15.0949	46.0326
15.1041	7.4586
15.1133	-0.1147
15.1225	20.3128
15.1317	-3.2592
15.1410	17.1696
15.1502	3.5991
15.1594	2.0293
15.1686	14.4601
15.1779	22.8917
15.1871	21.3239
15.1963	24.7568
15.2055	5.1904
15.2148	21.6247
15.2240	-1.9404
15.2332	21.4953
15.2424	26.9317
15.2516	-17.6313
15.2609	20.8064
15.2701	8.2448
15.2793	31.6839
15.2885	-5.8763
15.2978	3.5642
15.3070	14.0054
15.3162	-4.5528
15.3254	50.8898
15.3346	12.3330
15.3439	34.7769
15.3531	29.2215
15.3623	16.6668
15.3715	21.1128
15.3808	-3.4405
15.3900	-19.9932
15.3992	4.3453
15.4084	-11.3155
15.4177	15.0244
15.4269	-8.6350
15.4361	-4.2938
15.4453	-17.9518
15.4545	43.3908
15.4638	3.7341
15.4730	-0.9219
15.4822	30.4228
15.4914	2.7682
15.5007	26.1143
15.5099	32.4610
15.5191	4.8085
15.5283	10.1566
15.5375	30.5054
15.5468	30.8549
15.5560	47.2051
15.5652	22.5560
15.5744	-4.0924
15.5837	7.2599
15.5929	-4.3872
15.6021	-2.0335
15.6113	22.3208
15.6206	16.6758
15.6298	-2.9685
15.6390	22.3879
15.6482	6.7450
15.6574	6.1027
15.6667	26.4612
15.6759	25.8203
15.6851	3.1801
15.6943	15.5407
15.7036	46.9019
15.7128	26.2638
15.7220	5.6263
15.7312	11.9896
15.7404	26.3536
15.7497	-46.2818
15.7589	-17.9165
15.7681	-14.5673
15.7773	54.7825
15.7866	26.1330
15.7958	3.4843
15.8050	42.8362
15.8142	40.1887
15.8234	5.5420
15.8327	14.8960
15.8419	15.2506
15.8511	-22.3940
15.8603	0.9620
15.8696	30.3187
15.8788	0.6761
15.8880	7.0342
15.8972	32.3930
15.9065	16.7525
15.9157	4.1126
15.9249	36.4735
15.9341	38.8350
15.9433	14.1972
15.9526	-17.4399
15.9618	3.9237
15.9710	-23.7120
15.9802	22.6530
15.9895	24.0186
15.9987	19.3850
16.0079	21.7520
16.0171	10.1197
16.0263	9.4881
16.0356	-8.1428
16.0448	27.2270
16.0540	1.5975
16.0632	17.9687
16.0725	20.3405
16.0817	-20.2870
16.0909	7.0863
16.1001	19.4602
16.1094	-0.1652
16.1186	52.2101
16.1278	-8.4140
16.1370	-8.0373
16.1462	-13.6599
16.1555	6.7181
16.1647	7.0968
16.1739	-13.5238
16.1831	3.8564
16.1924	0.2371
16.2016	7.6186
16.2108	21.0008
16.2200	18.3836
16.2292	11.7672
16.2385	25.1514
16.2477	-13.4637
16.2569	15.9219
16.2661	-3.6918
16.2754	14.6952
16.2846	-1.9171
16.2938	22.4712
16.3030	19.8603
16.3122	5.2500
16.3215	61.6404
16.3307	34.0316
16.3399	14.4234
16.3491	39.8158
16.3584	-15.7910
16.3676	-9.3971
16.3768	-3.0026
16.3860	-4.6073
16.3953	32.7886
16.4045	38.1852
16.4137	-6.4175
16.4229	3.9805
16.4321	-12.6208
16.4414	20.7785
16.4506	21.1786
16.4598	-21.4207
16.4690	-7.0193
16.4783	1.3829
16.4875	3.7857
16.4967	6.1891
16.5059	34.5933
16.5151	9.9982
16.5244	22.4037
16.5336	6.8100
16.5428	14.2169
16.5520	-13.3755
16.5613	40.0328
16.5705	18.4418
16.5797	13.8515
16.5889	22.2619
16.5982	-31.3271
16.6074	28.0847
16.6166	30.4971
16.6258	16.9102
16.6350	24.3241
16.6443	24.7386
16.6535	9.1537
16.6627	15.5696
16.6719	5.9862
16.6812	-9.5966
16.6904	23.8214
16.6996	3.2400
16.7088	24.6593
16.7180	1.0793
16.7273	-13.5000
16.7365	14.9213
16.7457	34.3434
16.7549	8.7662
16.7642	14.1896
16.7734	24.6137
16.7826	-1.9615
16.7918	0.4640
16.8011	4.8902
16.8103	1.3171
16.8195	0.7447
16.8287	18.1729
16.8379	32.6019
16.8472	15.0315
16.8564	12.4618
16.8656	10.8928
16.8748	60.3245
16.8841	8.7569
16.8933	12.1900
16.9025	0.6237
16.9117	18.0582
16.9209	0.4933
16.9302	8.9291
16.9394	-7.6344
16.9486	6.8028
16.9578	2.2407
16.9671	19.6793
16.9763	12.1185
16.9855	7.5585
16.9947	13.9991
17.0039	23.4404
17.0132	-2.1175
17.0224	15.3252
17.0316	24.7685
17.0408	12.2126
17.0501	-1.3426
17.0593	-0.8972
17.0685	6.5490
17.0777	8.9958
17.0870	6.4433
17.0962	-11.1085
17.1054	-8.6596
17.1146	-14.2100
17.1238	4.2402
17.1331	12.6912
17.1423	6.1428
17.1515	39.5952
17.1607	-2.9518
17.1700	9.5019
17.1792	4.9563
17.1884	12.4114
17.1976	22.8671
17.2068	-5.6764
17.2161	15.7807
17.2253	47.2386
17.2345	25.6971
17.2437	-2.8437
17.2530	17.6162
17.2622	21.0768
17.2714	-14.4620
17.2806	-16.0000
17.2899	-5.8333
17.2991	-1.6660
17.3083	-9.4979
17.3175	15.6708
17.3267	8.8403
17.3360	2.0104
17.3452	38.1812
17.3544	27.3527
17.3636	21.5249
17.3729	2.6978
17.3821	-1.1287
17.3913	22.0456
17.4005	-18.7795
17.4097	1.3961
17.4190	26.5724
17.4282	20.7494
17.4374	0.9271
17.4466	-17.8945
17.4559	4.2845
17.4651	7.4643
17.4743	43.6447
17.4835	8.8259
17.4927	-3.9923
17.5020	44.1902
17.5112	11.3734
17.5204	5.5572
17.5296	46.7418
17.5389	12.9271
17.5481	-3.8870
17.5573	30.2996
17.5665	0.4869
17.5758	15.6749
17.5850	-29.1364
17.5942	40.0530
17.6034	13.2431
17.6126	3.4338
17.6219	17.6253
17.6311	0.8174
17.6403	25.0102
17.6495	-13.7963
17.6588	18.3979
17.6680	0.5928
17.6772	-7.2116
17.6864	-6.0154
17.6956	-2.8184
17.7049	5.3792
17.7141	-14.4225
17.7233	7.7766
17.7325	10.9763
17.7418	6.1766
17.7510	22.3777
17.7602	-6.4205
17.7694	24.7819
17.7787	7.9851
17.7879	2.1889
17.7971	-8.6066
17.8063	-6.4014
17.8155	-1.1955
17.8248	-7.9889
17.8340	28.2183
17.8432	-4.5737
17.8524	28.6349
17.8617	10.8442
17.8709	1.0543
17.8801	-3.7350
17.8893	-18.5237
17.8985	25.6884
17.9078	-15.0988
17.9170	19.1147
17.9262	20.3288
17.9354	10.5436
17.9447	14.7591
17.9539	-9.0247
17.9631	10.1922
17.9723	7.4098
17.9816	20.6281
17.9908	8.8471
18.0000	34.0667
18.0092	2.2870
18.0184	-20.4919
18.0277	-1.3286
18.0369	7.8355
18.0461	-3.9997
18.0553	-10.8343
18.0646	28.3319
18.0738	-5.5013
18.0830	21.6662
18.0922	-7.1656
18.1014	-28.9967
18.1107	24.1728
18.1199	28.3431
18.1291	0.5141
18.1383	-30.3143
18.1476	3.8580
18.1568	12.0310
18.1660	4.2047
18.1752	4.3791
18.1844	-7.4458
18.1937	0.7300
18.2029	-13.0936
18.2121	7.0836
18.2213	6.2614
18.2306	10.4399
18.2398	13.6191
18.2490	18.7990
18.2582	-21.0204
18.2675	11.1609
18.2767	-6.6572
18.2859	24.5255
18.2951	15.7088
18.3043	9.8928
18.3136	-10.9225
18.3228	27.2629
18.3320	4.4490
18.3412	-23.3642
18.3505	25.8232
18.3597	18.0114
18.3689	12.2002
18.3781	-18.6103
18.3873	10.5800
18.3966	25.7709
18.4058	-1.0376
18.4150	0.1547
18.4242	-15.6523
18.4335	3.5413
18.4427	-15.2643
18.4519	-5.2412
18.4611	-25.2173
18.4704	12.8073
18.4796	8.8325
18.4888	-24.1415
18.4980	17.8851
18.5072	-3.0876
18.5165	18.9404
18.5257	47.9691
18.5349	8.9984
18.5441	11.0285
18.5534	-19.9408
18.5626	-9.9093
18.5718	13.1228
18.5810	27.1556
18.5902	13.1891
18.5995	23.2233
18.6087	4.2582
18.6179	16.2938
18.6271	-12.6700
18.6364	28.3669
18.6456	29.4046
18.6548	15.4429
18.6640	11.4819
18.6732	10.5216
18.6825	-10.4380
18.6917	0.6030
18.7009	23.6448
18.7101	6.6872
18.7194	-2.2696
18.7286	25.7742
18.7378	-0.1813
18.7470	28.8639
18.7563	11.9098
18.7655	19.9563
18.7747	15.0036
18.7839	2.0515
18.7931	17.1002
18.8024	-33.8505
18.8116	48.1995
18.8208	3.2502
18.8300	0.3016
18.8393	3.3536
18.8485	-1.5936
18.8577	4.4599
18.8669	18.5140
18.8761	-30.4312
18.8854	-6.3757
18.8946	8.6805
18.9038	18.7374
18.9130	8.7950
18.9223	7.8533
18.9315	27.9122
18.9407	-8.0282
18.9499	8.0322
18.9592	24.0932
18.9684	31.1549
18.9776	13.2173
18.9868	9.2804
18.9960	5.3441
19.0053	30.4086
19.0145	41.4737
19.0237	27.5395
19.0329	1.6061
19.0422	-4.3267
19.0514	1.7412
19.0606	30.8097
19.0698	-7.1210
19.0790	10.9490
19.0883	46.0196
19.0975	-0.9091
19.1067	41.1630
19.1159	-14.7643
19.1252	6.3091
19.1344	56.3832
19.1436	4.4579
19.1528	21.5334
19.1621	-17.3905
19.1713	-1.3136
19.1805	1.7639
19.1897	12.8421
19.1989	5.9210
19.2082	48.0006
19.2174	41.0809
19.2266	50.1618
19.2358	21.2435
19.2451	-14.6742
19.2543	42.4088
19.2635	35.4926
19.2727	20.5770
19.2819	35.6621
19.2912	-9.2522
19.3004	-5.1657
19.3096	28.9215
19.3188	29.0093
19.3281	-26.9022
19.3373	9.1870
19.3465	14.2769
19.3557	-16.6325
19.3649	-2.5412
19.3742	26.5508
19.3834	9.6434
19.3926	-18.2632
19.4018	3.8308
19.4111	5.9255
19.4203	10.0209
19.4295	37.1170
19.4387	3.2138
19.4480	16.3113
19.4572	7.4095
19.4664	-18.4917
19.4756	-6.5580
19.4848	19.3764
19.4941	7.3115
19.5033	16.2472
19.5125	31.1837
19.5217	14.1208
19.5310	18.0587
19.5402	36.9972
19.5494	45.9364
19.5586	7.8763
19.5678	-5.1831
19.5771	8.7581
19.5863	-13.2999
19.5955	23.6427
19.6047	15.5861
19.6140	11.5301
19.6232	-1.5252
19.6324	25.4202
19.6416	21.3663
19.6509	18.3130
19.6601	19.2605
19.6693	38.2087
19.6785	9.1575
19.6877	22.1070
19.6970	9.0572
19.7062	7.0081
19.7154	39.9597
19.7246	14.9120
19.7339	22.8650
19.7431	26.8186
19.7523	-5.2271
19.7615	39.7280
19.7707	0.6837
19.7800	26.6401
19.7892	18.5972
19.7984	3.5549
19.8076	20.5134
19.8169	17.4726
19.8261	21.4324
19.8353	44.3929
19.8445	7.3542
19.8537	11.3161
19.8630	7.2787
19.8722	-8.7581
19.8814	70.2059
19.8906	19.1706
19.8999	23.1359
19.9091	-1.8981
19.9183	13.0687
19.9275	36.0361
19.9368	8.0042
19.9460	15.9729
19.9552	40.9424
19.9644	-21.0874
19.9736	21.8834
19.9829	41.8550
19.9921	4.8272
20.0013	8.8001
20.0105	12.7737
20.0198	42.7480
20.0290	4.7229
20.0382	26.6986
20.0474	0.6750
20.0566	46.6520
20.0659	0.6297
20.0751	-13.3919
20.0843	22.5872
20.0935	-5.4330
20.1028	12.5475
20.1120	-2.4713
20.1212	45.5105
20.1304	10.4931
20.1397	-4.5237
20.1489	3.4602
20.1581	35.4448
20.1673	16.4301
20.1765	30.4161
20.1858	-10.5972
20.1950	-8.6099
20.2042	-7.6218
20.2134	38.3669
20.2227	10.3563
20.2319	7.3464
20.2411	30.3372
20.2503	8.3287
20.2595	25.3209
20.2688	19.3137
20.2780	15.3073
20.2872	29.3015
20.2964	22.2964
20.3057	47.2920
20.3149	45.2883
20.3241	30.2853
20.3333	-21.7170
20.3426	12.2813
20.3518	6.2804
20.3610	-0.7199
20.3702	9.2806
20.3794	5.2817
20.3887	19.2835
20.3979	16.2860
20.4071	0.2891
20.4163	3.2930
20.4256	-2.7024
20.4348	7.3028
20.4440	6.3087
20.4532	8.3153
20.4624	-3.6774
20.4717	-8.6694
20.4809	26.3393
20.4901	18.3487
20.4993	40.3587
20.5086	37.3695
20.5178	-19.6191
20.5270	12.3930
20.5362	-15.5942
20.5454	34.4193
20.5547	29.4335
20.5639	21.4484
20.5731	-0.5361
20.5823	20.4802
20.5916	16.4971
20.6008	36.5147
20.6100	13.5331
20.6192	-2.4479
20.6285	6.5717
20.6377	-3.4079
20.6469	34.6132
20.6561	19.6349
20.6653	21.6574
20.6746	48.6805
20.6838	17.7043
20.6930	9.7288
20.7022	23.7540
20.7115	44.7799
20.7207	31.8064
20.7299	20.8337
20.7391	14.8616
20.7483	28.8902
20.7576	47.9196
20.7668	-10.0504
20.7760	13.9802
20.7852	49.0116
20.7945	4.0437
20.8037	0.0764
20.8129	29.1099
20.8221	-6.8560
20.8314	14.1788
20.8406	10.2143
20.8498	26.2505
20.8590	-8.7126
20.8682	23.3250
20.8775	15.3632
20.8867	19.4022
20.8959	-4.5582
20.9051	23.4821
20.9144	24.5232
20.9236	38.5649
20.9328	0.6072
20.9420	-0.3497
20.9512	9.6941
20.9605	30.7385
20.9697	15.7837
20.9789	17.8295
20.9881	6.8760
20.9974	15.9232
21.0066	-2.0289
21.0158	33.0197
21.0250	26.0689
21.0342	15.1189
21.0435	10.1695
21.0527	48.2208
21.0619	16.2729
21.0711	41.3256
21.0804	22.3789
21.0896	6.4330
21.0988	24.4878
21.1080	20.5432
21.1173	6.5994
21.1265	39.6562
21.1357	48.7137
21.1449	38.7719
21.1541	50.8308
21.1634	13.8904
21.1726	39.9507
21.1818	35.0116
21.1910	17.0733
21.2003	49.1356
21.2095	63.1986
21.2187	88.2623
21.2279	23.3267
21.2371	53.3918
21.2464	83.4576
21.2556	160.5240
21.2648	331.5912
21.2740	705.6591
21.2833	1114.7275
21.2925	1393.7968
21.3017	1211.8667
21.3109	704.9373
21.3202	334.0085
21.3294	152.0805
21.3386	91.1531
21.3478	62.2265
21.3570	50.3005
21.3663	76.3752
21.3755	93.4506
21.3847	132.5267
21.3939	281.6035
21.4032	441.6810
21.4124	698.7591
21.4216	805.8380
21.4308	625.9175
21.4400	284.9977
21.4493	115.0786
21.4585	67.1602
21.4677	24.2425
21.4769	31.3254
21.4862	20.4091
21.4954	32.4935
21.5046	5.5785
21.5138	35.6642
21.5230	-4.2494
21.5323	8.8377
21.5415	7.9255
21.5507	20.0140
21.5599	14.1031
21.5692	25.1930
21.5784	31.2835
21.5876	46.3747
21.5968	-0.5334
21.6061	-6.4408
21.6153	24.6525
21.6245	5.7465
21.6337	8.8412
21.6429	29.9365
21.6522	3.0325
21.6614	8.1293
21.6706	42.2267
21.6798	32.3248
21.6891	33.4236
21.6983	29.5231
21.7075	4.6232
21.7167	40.7241
21.7259	33.8256
21.7352	9.9278
21.7444	40.0308
21.7536	41.1344
21.7628	10.2386
21.7721	15.3436
21.7813	27.4493
21.7905	10.5557
21.7997	15.6627
21.8090	14.7704
21.8182	15.8788
21.8274	-12.0120
21.8366	4.0978
21.8458	21.2082
21.8551	18.3194
21.8643	33.4313
21.8735	21.5438
21.8827	30.6570
21.8920	-21.2290
21.9012	15.8856
21.9104	44.0009
21.9196	30.1169
21.9288	-0.7665
21.9381	4.3509
21.9473	7.4689
21.9565	20.5877
21.9657	34.7071
21.9750	16.8272
21.9842	6.9480
21.9934	20.0695
22.0026	49.1917
22.0119	28.3146
22.0211	9.4381
22.0303	17.5623
22.0395	37.6873
22.0487	55.8129
22.0580	26.9392
22.0672	0.0662
22.0764	44.1939
22.0856	31.3222
22.0949	45.4513
22.1041	6.5810
22.1133	28.7115
22.1225	17.8426
22.1317	17.9744
22.1410	38.1069
22.1502	0.2401
22.1594	-3.6261
22.1686	-20.4915
22.1779	4.4339
22.1871	16.3600
22.1963	29.2868
22.2055	5.2142
22.2147	29.1424
22.2240	-13.9288
22.2332	33.0008
22.2424	20.9310
22.2516	12.8619
22.2609	38.7935
22.2701	27.7258
22.2793	24.6587
22.2885	-6.4076
22.2978	32.5268
22.3070	24.4618
22.3162	6.3975
22.3254	23.3339
22.3346	-0.7290
22.3439	22.2088
22.3531	3.1473
22.3623	11.0864
22.3715	-5.9737
22.3808	-9.0332
22.3900	11.9081
22.3992	21.8500
22.4084	15.7926
22.4176	2.7359
22.4269	-7.3202
22.4361	14.6245
22.4453	-8.4301
22.4545	22.5159
22.4638	36.4626
22.4730	19.4100
22.4822	49.3581
22.4914	24.3069
22.5007	-10.7436
22.5099	16.2066
22.5191	28.1574
22.5283	23.1090
22.5375	-9.9388
22.5468	21.0141
22.5560	-12.0323
22.5652	6.9220
22.5744	17.8770
22.5837	5.8327
22.5929	18.7890
22.6021	3.7461
22.6113	16.7038
22.6205	21.6623
22.6298	18.6214
22.6390	-15.4188
22.6482	1.5416
22.6574	13.5028
22.6667	3.4647
22.6759	8.4272
22.6851	19.3905
22.6943	46.3544
22.7035	21.3190
22.7128	11.2843
22.7220	28.2503
22.7312	22.2170
22.7404	31.1843
22.7497	-1.8476
22.7589	-8.8789
22.7681	38.0906
22.7773	-4.9393
22.7866	2.0315
22.7958	22.0030
22.8050	4.9751
22.8142	10.9480
22.8234	14.9216
22.8327	10.8958
22.8419	9.8707
22.8511	13.8464
22.8603	-8.1773
22.8696	11.7997
22.8788	9.7773
22.8880	5.7557
22.8972	9.7348
22.9064	19.7145
22.9157	3.6950
22.9249	-16.3239
22.9341	27.6579
22.9433	21.6404
22.9526	2.6236
22.9618	22.6074
22.9710	12.5920
22.9802	9.5772
22.9895	-28.4368
22.9987	13.5498
23.0079	-0.4629
23.0171	22.5251
23.0263	20.5138
23.0356	35.5032
23.0448	8.4932
23.0540	2.4840
23.0632	7.4754
23.0725	8.4676
23.0817	-5.5396
23.0909	8.4539
23.1001	3.4481
23.1093	0.4430
23.1186	23.4385
23.1278	10.4348
23.1370	29.4317
23.1462	1.4294
23.1555	19.4277
23.1647	-7.5733
23.1739	32.4264
23.1831	20.4268
23.1924	18.4278
23.2016	11.4296
23.2108	11.4320
23.2200	3.4352
23.2292	17.4390
23.2385	-8.5565
23.2477	26.4487
23.2569	22.4546
23.2661	11.4611
23.2754	5.4684
23.2846	33.4763
23.2938	22.4850
23.3030	-3.5057
23.3122	18.5043
23.3215	13.5150
23.3307	28.5264
23.3399	-6.4615
23.3491	16.5512
23.3584	17.5647
23.3676	14.5788
23.3768	27.5937
23.3860	10.6092
23.3952	12.6254
23.4045	9.6423
23.4137	1.6598
23.4229	9.6781
23.4321	7.6971
23.4414	-29.2833
23.4506	26.7370
23.4598	3.7581
23.4690	31.7798
23.4783	-0.1978
23.4875	-10.1748
23.4967	-7.1510
23.5059	13.8735
23.5151	14.8986
23.5244	-39.0756
23.5336	-9.0490
23.5428	-3.0218
23.5520	0.0061
23.5613	20.0346
23.5705	13.0639
23.5797	9.0939
23.5889	24.1245
23.5981	23.1559
23.6074	14.1879
23.6166	3.2206
23.6258	12.2540
23.6350	43.2881
23.6443	1.3229
23.6535	-0.6417
23.6627	28.3945
23.6719	-11.5687
23.6812	-8.5312
23.6904	23.5071
23.6996	13.5460
23.7088	27.5855
23.7180	20.6258
23.7273	-31.3332
23.7365	36.7084
23.7457	14.7508
23.7549	9.7938
23.7642	4.8375
23.7734	49.8819
23.7826	-20.0730
23.7918	12.9728
23.8010	5.0193
23.8103	3.0664
23.8195	-0.8857
23.8287	20.1628
23.8379	-10.7880
23.8472	14.2619
23.8564	8.3125
23.8656	7.3638
23.8748	-4.5842
23.8840	18.4684
23.8933	28.5218
23.9025	16.5758
23.9117	13.6305
23.9209	9.6860
23.9302	7.7421
23.9394	-6.2012
23.9486	-5.1437
23.9578	8.9145
23.9671	20.9733
23.9763	-1.9671
23.9855	1.0931
23.9947	-1.8460
24.0039	28.2156
24.0132	10.2779
24.0224	-0.6591
24.0316	-1.5955
24.0408	-17.5311
24.0501	4.5339
24.0593	4.5997
24.0685	14.6661
24.0777	23.7332
24.0869	1.8010
24.0962	11.8695
24.1054	-11.0614
24.1146	-18.9915
24.1238	12.0254
24.1331	6.0429
24.1423	4.0612
24.1515	22.0801
24.1607	-10.9003
24.1700	-0.8799
24.1792	16.1411
24.1884	25.1628
24.1976	41.1851
24.2068	42.2082
24.2161	-3.7680
24.2253	36.2564
24.2345	9.2815
24.2437	15.3074
24.2530	22.3339
24.2622	3.3611
24.2714	-17.6111
24.2806	30.4175
24.2898	1.4468
24.2991	9.4767
24.3083	9.5074
24.3175	7.5387
24.3267	13.5707
24.3360	37.6034
24.3452	18.6368
24.3544	-0.3292
24.3636	2.7056
24.3729	12.7411
24.3821	20.7772
24.3913	25.8140
24.4005	-1.1485
24.4097	5.8897
24.4190	14.9286
24.4282	7.9682
24.4374	0.0085
24.4466	3.0494
24.4559	23.0911
24.4651	18.1334
24.4743	13.1764
24.4835	8.2201
24.4927	18.2645
24.5020	17.3096
24.5112	10.3553
24.5204	27.4018
24.5296	26.4489
24.5389	-16.5032
24.5481	7.5453
24.5573	9.5945
24.5665	-0.3556
24.5757	-13.3050
24.5850	-7.2537
24.5942	-5.2018
24.6034	2.8509
24.6126	-7.0958
24.6219	5.9582
24.6311	14.0129
24.6403	8.0683
24.6495	8.1244
24.6588	8.1812
24.6680	24.2386
24.6772	18.2968
24.6864	70.3556
24.6956	11.4152
24.7049	7.4754
24.7141	27.5363
24.7233	16.5979
24.7325	37.6601
24.7418	14.7231
24.7510	10.7867
24.7602	-7.1489
24.7694	6.9161
24.7786	29.9818
24.7879	26.0482
24.7971	22.1153
24.8063	34.1831
24.8155	9.2516
24.8248	5.3207
24.8340	10.3906
24.8432	26.4611
24.8524	34.5323
24.8617	10.6042
24.8709	-0.3232
24.8801	21.7501
24.8893	-8.1759
24.8985	12.8987
24.9078	30.9741
24.9170	26.0501
24.9262	22.1268
24.9354	0.2042
24.9447	28.2823
24.9539	40.3611
24.9631	2.4406
24.9723	30.5208
24.9815	16.6016
24.9908	8.6831
25.0000	42.7654
25.0092	5.8483
25.0184	-2.0681
25.0277	24.0162
25.0369	17.1011
25.0461	40.1868
25.0553	4.2732
25.0645	27.3602
25.0738	4.4479
25.0830	11.5363
25.0922	7.6254
25.1014	11.7152
25.1107	4.8057
25.1199	14.8969
25.1291	3.9887
25.1383	36.0813
25.1476	16.1745
25.1568	40.2684
25.1660	29.3630
25.1752	22.4583
25.1844	8.5543
25.1937	45.6510
25.2029	15.7483
25.2121	-4.1536
25.2213	-10.0549
25.2306	12.0445
25.2398	23.1446
25.2490	13.2454
25.2582	43.3469
25.2674	-2.5509
25.2767	-19.4481
25.2859	22.6555
25.2951	16.7597
25.3043	26.8647
25.3136	30.9703
25.3228	7.0766
25.3320	24.1836
25.3412	41.2912
25.3505	-18.6004
25.3597	-15.4914
25.3689	19.3165
25.3781	36.1250
25.3873	47.9343
25.3966	18.7442
25.4058	31.5548
25.4150	13.3661
25.4242	27.1781
25.4335	19.9908
25.4427	19.8041
25.4519	19.6182
25.4611	24.4329
25.4703	32.2483
25.4796	14.0644
25.4888	-0.1188
25.4980	16.6987
25.5072	38.5169
25.5165	48.3358
25.5257	-10.8447
25.5349	27.9755
25.5441	13.7965
25.5534	59.6181
25.5626	21.4404
25.5718	12.2634
25.5810	0.0871
25.5902	53.9114
25.5995	24.7365
25.6087	18.5622
25.6179	8.3886
25.6271	39.2158
25.6364	23.0436
25.6456	54.8721
25.6548	29.7012
25.6640	25.5311
25.6732	33.3617
25.6825	66.1929
25.6917	48.0248
25.7009	22.8575
25.7101	20.6908
25.7194	22.5248
25.7286	26.3594
25.7378	40.1948
25.7470	25.0309
25.7562	46.8676
25.7655	26.7051
25.7747	12.5432
25.7839	32.3820
25.7931	42.2215
25.8024	18.0617
25.8116	32.9025
25.8208	8.7441
25.8300	8.5864
25.8393	-8.5707
25.8485	21.2729
25.8577	58.1172
25.8669	5.9622
25.8761	58.8079
25.8854	5.6543
25.8946	3.5014
25.9038	2.3491
25.9130	14.1976
25.9223	35.0467
25.9315	29.8965
25.9407	20.7470
25.9499	28.5982
25.9591	27.4501
25.9684	30.3027
25.9776	16.1559
25.9868	-0.9901
25.9960	36.8645
26.0053	20.7198
26.0145	-9.4242
26.0237	-7.5675
26.0329	-4.7101
26.0422	-1.8520
26.0514	15.0067
26.0606	8.8662
26.0698	12.7263
26.0790	1.5871
26.0883	0.4486
26.0975	13.3108
26.1067	17.1737
26.1159	13.0373
26.1252	29.9015
26.1344	13.7665
26.1436	16.6321
26.1528	50.4985
26.1620	7.3655
26.1713	20.2332
26.1805	7.1016
26.1897	-9.0294
26.1989	2.8404
26.2082	12.7109
26.2174	42.5820
26.2266	42.4538
26.2358	46.3263
26.2450	44.1995
26.2543	8.0734
26.2635	18.9480
26.2727	35.8233
26.2819	1.6992
26.2912	25.5759
26.3004	31.4532
26.3096	10.3312
26.3188	25.2099
26.3281	17.0893
26.3373	45.9694
26.3465	-5.1498
26.3557	-0.2684
26.3649	31.6138
26.3742	-1.5034
26.3834	3.3801
26.3926	-9.7357
26.4018	0.1492
26.4111	23.0348
26.4203	58.9211
26.4295	17.8081
26.4387	22.6957
26.4479	6.5840
26.4572	29.4731
26.4664	-8.6372
26.4756	23.2532
26.4848	9.1443
26.4941	16.0360
26.5033	17.9285
26.5125	30.8217
26.5217	4.7155
26.5310	6.6100
26.5402	-13.4948
26.5494	6.4011
26.5586	38.2977
26.5678	-15.8050
26.5771	10.0930
26.5863	36.9916
26.5955	12.8910
26.6047	16.7910
26.6140	42.6917
26.6232	18.5931
26.6324	34.4952
26.6416	-13.6020
26.6508	1.3015
26.6601	9.2056
26.6693	13.1105
26.6785	6.0160
26.6877	16.9222
26.6970	8.8291
26.7062	11.7367
26.7154	5.6450
26.7246	37.5540
26.7339	-4.5363
26.7431	40.3740
26.7523	38.2850
26.7615	34.1968
26.7707	13.1092
26.7800	58.0223
26.7892	15.9361
26.7984	-14.1495
26.8076	35.7657
26.8169	-0.3184
26.8261	44.5981
26.8353	12.5153
26.8445	25.4332
26.8537	20.3518
26.8630	12.2711
26.8722	7.1911
26.8814	16.1118
26.8906	-5.9669
26.8999	2.9552
26.9091	-11.1221
26.9183	-15.1987
26.9275	-14.3602
26.9367	16.4789
26.9460	15.3187
26.9552	32.1592
26.9644	23.0004
26.9736	-17.1577
26.9829	17.6848
26.9921	40.5281
27.0013	8.3720
27.0105	5.2166
27.0198	10.0620
27.0290	35.9080
27.0382	6.7546
27.0474	11.6020
27.0566	13.4501
27.0659	17.2988
27.0751	18.1483
27.0843	7.9984
27.0935	17.8492
27.1028	35.7007
27.1120	27.5529
27.1212	8.4058
27.1304	17.2594
27.1396	2.1137
27.1489	6.9686
27.1581	12.8242
27.1673	9.6806
27.1765	12.5376
27.1858	44.3953
27.1950	14.2536
27.2042	0.1127
27.2134	15.9725
27.2227	10.8329
27.2319	35.6941
27.2411	10.5559
27.2503	22.4184
27.2595	9.2816
27.2688	6.1455
27.2780	6.0101
27.2872	-17.1247
27.2964	15.7413
27.3057	15.6079
27.3149	15.4752
27.3241	32.3433
27.3333	10.2120
27.3425	21.0814
27.3518	20.9514
27.3610	14.8222
27.3702	-6.3064
27.3794	31.5658
27.3887	21.4386
27.3979	15.3121
27.4071	-30.8137
27.4163	20.0612
27.4255	-1.0632
27.4348	45.8131
27.4440	17.6900
27.4532	4.5677
27.4624	27.4460
27.4717	24.3250
27.4809	12.2048
27.4901	43.0852
27.4993	3.9662
27.5086	26.8480
27.5178	25.7305
27.5270	-1.3864
27.5362	11.4975
27.5454	6.3820
27.5547	3.2672
27.5639	11.1531
27.5731	5.0397
27.5823	4.9269
27.5916	11.8149
27.6008	13.7036
27.6100	-1.4071
27.6192	22.4829
27.6284	-3.6264
27.6377	15.2650
27.6469	22.1571
27.6561	24.0499
27.6653	28.9434
27.6746	12.8375
27.6838	42.7324
27.6930	18.6279
27.7022	9.5241
27.7115	-2.5790
27.7207	7.3186
27.7299	9.2169
27.7391	26.1159
27.7483	9.0155
27.7576	-2.0841
27.7668	2.8169
27.7760	20.7186
27.7852	-0.3790
27.7945	21.5241
27.8037	28.4279
27.8129	0.3324
27.8221	12.2375
27.8313	-0.8566
27.8406	23.0499
27.8498	24.9571
27.8590	-8.1349
27.8682	-7.2263
27.8775	19.6829
27.8867	2.5929
27.8959	31.5036
27.9051	11.4149
27.9144	7.3270
27.9236	1.2397
27.9328	17.1531
27.9420	41.0672
27.9512	8.9820
27.9605	18.8975
27.9697	25.8136
27.9789	42.7305
27.9881	31.6480
27.9974	41.5663
28.0066	35.4852
28.0158	32.4048
28.0250	-5.6749
28.0342	-0.7539
28.0435	50.1677
28.0527	36.0901
28.0619	-9.9869
28.0711	47.9369
28.0804	13.8613
28.0896	12.7864
28.0988	10.7122
28.1080	11.6387
28.1172	19.5658
28.1265	-2.5063
28.1357	54.4222
28.1449	-16.6485
28.1541	4.2814
28.1634	27.2120
28.1726	16.1433
28.1818	-4.9247
28.1910	-16.9920
28.2003	5.9099
28.2095	27.8125
28.2187	-17.2842
28.2279	21.6198
28.2371	13.5245
28.2464	35.4298
28.2556	-2.6641
28.2648	8.2426
28.2740	5.1501
28.2833	52.0582
28.2925	23.9670
28.3017	17.8765
28.3109	16.7867
28.3201	-17.3025
28.3294	67.6091
28.3386	5.5213
28.3478	18.4343
28.3570	9.3479
28.3663	13.2622
28.3755	-1.8228
28.3847	9.0929
28.3939	8.0093
28.4032	9.9263
28.4124	33.8441
28.4216	-3.2375
28.4308	-4.3184
28.4400	39.6014
28.4493	-2.4781
28.4585	15.4431
28.4677	17.3650
28.4769	17.2876
28.4862	18.2108
28.4954	19.1347
28.5046	38.0594
28.5138	26.9847
28.5230	15.9107
28.5323	68.8374
28.5415	-11.2352
28.5507	14.6928
28.5599	1.6216
28.5692	4.5510
28.5784	-4.5189
28.5876	-8.5880
28.5968	28.3435
28.6060	2.2757
28.6153	16.2085
28.6245	31.1421
28.6337	10.0764
28.6429	7.0113
28.6522	19.9469
28.6614	-11.1167
28.6706	40.8203
28.6798	8.7580
28.6891	8.6964
28.6983	25.6354
28.7075	-0.4248
28.7167	-19.4844
28.7259	17.4568
28.7352	10.3986
28.7444	7.3411
28.7536	8.2843
28.7628	29.2282
28.7721	17.1728
28.7813	25.1180
28.7905	31.0640
28.7997	15.0106
28.8089	35.9579
28.8182	31.9059
28.8274	21.8547
28.8366	42.8040
28.8458	29.7541
28.8551	25.7049
28.8643	-11.3437
28.8735	0.6085
28.8827	-4.4387
28.8920	10.5148
28.9012	9.4690
28.9104	18.4239
28.9196	13.3795
28.9288	53.3358
28.9381	17.2927
28.9473	-39.7496
28.9565	-0.7913
28.9657	25.1677
28.9750	-5.8726
28.9842	26.0878
28.9934	23.0489
29.0026	5.0107
29.0118	9.9731
29.0211	44.9363
29.0303	-9.0999
29.0395	13.8646
29.0487	23.8298
29.0580	-12.2043
29.0672	5.7623
29.0764	-5.2704
29.0856	3.6976
29.0949	-2.3338
29.1041	23.6356
29.1133	7.6056
29.1225	-1.4237
29.1317	-4.4523
29.1410	-13.4802
29.1502	8.4926
29.1594	2.4660
29.1686	8.4402
29.1779	-18.5850
29.1871	-1.6095
29.1963	27.3668
29.2055	-3.6563
29.2147	-3.6787
29.2240	12.2995
29.2332	-12.7215
29.2424	17.2582
29.2516	13.2385
29.2609	-0.7805
29.2701	17.2013
29.2793	40.1837
29.2885	19.1668
29.2977	-3.8495
29.3070	2.1350
29.3162	-6.8798
29.3254	27.1060
29.3346	17.0925
29.3439	-7.9202
29.3531	26.0677
29.3623	-5.9437
29.3715	23.0456
29.3808	17.0355
29.3900	29.0262
29.3992	-14.9825
29.4084	11.0096
29.4176	6.0023
29.4269	-4.0043
29.4361	-2.0102
29.4453	-16.0154
29.4545	6.9801
29.4638	15.9762
29.4730	-8.0269
29.4822	28.9706
29.4914	17.9689
29.5006	19.9678
29.5099	-5.0326
29.5191	44.9677
29.5283	15.9687
29.5375	0.9703
29.5468	-18.0273
29.5560	27.9757
29.5652	-8.0206
29.5744	45.9839
29.5837	38.9890
29.5929	-2.0052
29.6021	7.0012
29.6113	-8.9916
29.6205	-14.9837
29.6298	-7.9752
29.6390	25.0341
29.6482	-16.9560
29.6574	-0.9454
29.6667	-22.9341
29.6759	16.0779
29.6851	5.0905
29.6943	-9.8961
29.7035	14.1179
29.7128	11.1327
29.7220	-9.8519
29.7312	16.1642
29.7404	-11.8190
29.7497	-15.8015
29.7589	37.2167
29.7681	1.2355
29.7773	-12.7449
29.7865	12.2753
29.7958	-19.7037
29.8050	18.3179
29.8142	-7.6598
29.8234	15.3632
29.8327	-16.6131
29.8419	29.4112
29.8511	13.4363
29.8603	-36.5380
29.8696	1.4884
29.8788	-0.4844
29.8880	-16.4566
29.8972	39.5719
29.9064	23.6010
29.9157	6.6309
29.9249	4.6615
29.9341	-1.3073
29.9433	-7.2754
29.9526	-13.2427
29.9618	3.7906
29.9710	14.8246
29.9802	10.8593
29.9894	29.8946
29.9987	34.9307
30.0079	5.9674
30.0171	-8.9951
30.0263	32.0430
30.0356	7.0818
30.0448	19.1213
30.0540	-3.8385
30.0632	30.2024
30.0725	16.2439
30.0817	-1.7138
30.0909	9.3291
30.1001	15.3727
30.1093	2.4171
30.1186	33.4621
30.1278	-3.4922
30.1370	30.5541
30.1462	9.6012
30.1555	32.6489
30.1647	14.6974
30.1739	6.7465
30.1831	-20.2037
30.1923	32.8468
30.2016	12.8980
30.2108	1.9499
30.2200	0.0025
30.2292	40.0557
30.2385	13.1097
30.2477	27.1643
30.2569	15.2196
30.2661	30.2756
30.2754	10.3323
30.2846	27.3897
30.2938	30.4478
30.3030	20.5066
30.3122	4.5660
30.3215	6.6261
30.3307	14.6870
30.3399	6.7485
30.3491	-21.1893
30.3584	-4.1264
30.3676	1.9371
30.3768	-0.9986
30.3860	3.0663
30.3952	-32.8680
30.4045	33.1983
30.4137	22.2653
30.4229	17.3330
30.4321	-6.5986
30.4414	20.4705
30.4506	20.5403
30.4598	38.6107
30.4690	4.6818
30.4782	10.7537
30.4875	5.8262
30.4967	18.8994
30.5059	-6.0267
30.5151	19.0479
30.5244	-2.8769
30.5336	6.1991
30.5428	-0.7243
30.5520	0.3531
30.5613	34.4311
30.5705	-18.4902
30.5797	18.5892
30.5889	13.6693
30.5981	25.7500
30.6074	-17.1685
30.6166	2.9137
30.6258	13.9965
30.6350	-16.9200
30.6443	11.1642
30.6535	9.2491
30.6627	-17.6653
30.6719	-7.5790
30.6811	-18.4921
30.6904	8.4634
30.6996	5.4195
30.7088	-3.6237
30.7180	-15.6662
30.7273	10.2920
30.7365	7.2509
30.7457	22.2105
30.7549	21.1708
30.7642	35.1317
30.7734	-8.9067
30.7826	-8.9443
30.7918	-16.9813
30.8010	30.9824
30.8103	22.9468
30.8195	31.9118
30.8287	19.8776
30.8379	28.8441
30.8472	12.8112
30.8564	7.7790
30.8656	16.7475
30.8748	7.7167
30.8840	11.6866
30.8933	7.6572
30.9025	15.6285
30.9117	-19.3996
30.9209	-11.4269
30.9302	13.5464
30.9394	-10.4796
30.9486	32.4951
30.9578	3.4705
30.9670	24.4466
30.9763	24.4234
30.9855	11.4008
30.9947	-13.6210
31.0039	5.3578
31.0132	16.3373
31.0224	8.3175
31.0316	45.2984
31.0408	-18.7200
31.0501	-10.7377
31.0593	-11.7548
31.0685	-6.7711
31.0777	2.2132
31.0869	5.1983
31.0962	8.1840
31.1054	4.1704
31.1146	15.1575
31.1238	-8.8548
31.1331	24.1337
31.1423	33.1228
31.1515	11.1127
31.1607	12.1032
31.1699	25.0944
31.1792	4.0863
31.1884	1.0789
31.1976	18.0722
31.2068	-6.9338
31.2161	13.0608
31.2253	-13.9439
31.2345	-4.9478
31.2437	31.0489
31.2530	-12.9537
31.2622	-1.9556
31.2714	19.0432
31.2806	44.0426
31.2898	10.0428
31.2991	-20.9564
31.3083	40.0452
31.3175	-2.9526
31.3267	11.0503
31.3360	-8.9461
31.3452	15.0582
31.3544	-13.9368
31.3636	13.0688
31.3728	41.0752
31.3821	9.0822
31.3913	11.0899
31.4005	-23.9017
31.4097	-1.8926
31.4190	15.1172
31.4282	8.1277
31.4374	16.1388
31.4466	5.1507
31.4559	-5.8368
31.4651	-1.8235
31.4743	2.1904
31.4835	0.2050
31.4927	-15.7797
31.5020	-13.7903
31.5112	-8.8002
31.5204	16.1906
31.5296	1.1821
31.5389	24.1743
31.5481	26.1671
31.5573	31.1607
31.5665	14.1549
31.5757	-15.8501
31.5850	6.1455
31.5942	8.1418
31.6034	37.1388
31.6126	-4.8636
31.6219	14.1348
31.6311	-4.8661
31.6403	-1.8664
31.6495	-6.8660
31.6587	26.1352
31.6680	7.1370
31.6772	17.1395
31.6864	-1.8574
31.6956	35.1465
31.7049	25.1511
31.7141	-0.8437
31.7233	33.1622
31.7325	6.1689
31.7418	-11.8238
31.7510	22.1842
31.7602	-9.8071
31.7694	2.2022
31.7786	8.2123
31.7879	-3.7770
31.7971	45.2345
31.8063	9.2466
31.8155	8.2594
31.8248	16.2729
31.8340	7.2871
31.8432	-12.6980
31.8524	18.3175
31.8616	16.3338
31.8709	-20.6493
31.8801	8.3684
31.8893	5.3867
31.8985	25.4057
31.9078	18.4254
31.9170	-20.5543
31.9262	45.4668
31.9354	-23.5114
31.9447	10.5110
31.9539	18.5341
31.9631	44.5580
31.9723	10.5825
31.9815	21.6077
31.9908	0.6335
32.0000	-14.3399
32.0092	-0.3126
32.0184	-23.2847
32.0277	14.7439
32.0369	8.7733
32.0461	15.8033
32.0553	18.8340
32.0645	2.8653
32.0738	-7.1026
32.0830	8.9302
32.0922	0.9636
32.1014	38.9978
32.1107	12.0326
32.1199	-5.9319
32.1291	-0.8957
32.1383	3.1412
32.1475	4.1788
32.1568	-20.7830
32.1660	45.2560
32.1752	10.2956
32.1844	23.3359
32.1937	7.3770
32.2029	26.4187
32.2121	1.4610
32.2213	24.5041
32.2306	-23.4521
32.2398	44.5923
32.2490	-5.3625
32.2582	17.6833
32.2674	27.7298
32.2767	13.7770
32.2859	17.8249
32.2951	-17.1265
32.3043	9.9228
32.3136	8.9727
32.3228	12.0234
32.3320	12.0747
32.3412	-7.8733
32.3504	21.1794
32.3597	28.2328
32.3689	25.2869
32.3781	25.3417
32.3873	14.3972
32.3966	-9.5467
32.4058	11.5101
32.4150	-3.4323
32.4242	-10.3741
32.4335	27.6848
32.4427	2.7444
32.4519	5.8046
32.4611	13.8656
32.4703	-2.0728
32.4796	21.9896
32.4888	-2.9474
32.4980	-0.8837
32.5072	6.1807
32.5165	41.2458
32.5257	35.3116
32.5349	33.3781
32.5441	13.4452
32.5533	-5.4870
32.5626	2.5816
32.5718	18.6508
32.5810	19.7207
32.5902	-13.2087
32.5995	37.8626
32.6087	-14.0655
32.6179	26.0072
32.6271	26.0805
32.6363	17.1546
32.6456	13.2293
32.6548	-8.6953
32.6640	19.3808
32.6732	-0.5424
32.6825	-22.4650
32.6917	4.6132
32.7009	27.6921
32.7101	15.7716
32.7194	-10.1482
32.7286	39.9327
32.7378	-8.9857
32.7470	30.0966
32.7562	14.1796
32.7655	27.2632
32.7747	-4.6524
32.7839	-5.5674
32.7931	9.5184
32.8024	12.6048
32.8116	5.6919
32.8208	4.7797
32.8300	-4.1319
32.8392	0.9573
32.8485	40.0471
32.8577	24.1377
32.8669	1.2289
32.8761	16.3208
32.8854	38.4134
32.8946	29.5067
32.9038	17.6007
32.9130	16.6954
32.9223	20.7907
32.9315	26.8868
32.9407	11.9835
32.9499	23.0809
32.9591	50.1790
32.9684	12.2778
32.9776	13.3773
32.9868	-9.5225
32.9960	27.5783
33.0053	16.6799
33.0145	0.7821
33.0237	17.8850
33.0329	15.9886
33.0421	15.0929
33.0514	36.1979
33.0606	15.3036
33.0698	19.4100
33.0790	32.5170
33.0883	-1.3752
33.0975	34.7332
33.1067	9.8423
33.1159	2.9521
33.1252	30.0626
33.1344	30.1738
33.1436	9.2856
33.1528	5.3982
33.1620	21.5114
33.1713	20.6253
33.1805	-1.2600
33.1897	12.8553
33.1989	-0.0288
33.2082	61.0879
33.2174	26.2053
33.2266	36.3233
33.2358	47.4421
33.2450	32.5615
33.2543	33.6816
33.2635	23.8024
33.2727	12.9239
33.2819	5.0461
33.2912	28.1690
33.3004	67.2925
33.3096	18.4168
33.3188	49.5417
33.3280	11.6674
33.3373	3.7937
33.3465	44.9207
33.3557	26.0483
33.3649	33.1767
33.3742	21.3058
33.3834	11.4355
33.3926	42.5660
33.4018	-1.3029
33.4111	6.8289
33.4203	38.9614
33.4295	28.0946
33.4387	23.2285
33.4479	19.3630
33.4572	24.4983
33.4664	21.6342
33.4756	24.7708
33.4848	19.9082
33.4941	40.0462
33.5033	13.1849
33.5125	44.3242
33.5217	44.4643
33.5309	-6.3949
33.5402	38.7465
33.5494	38.8886
33.5586	21.0314
33.5678	24.1749
33.5771	10.3191
33.5863	3.4640
33.5955	27.6096
33.6047	43.7558
33.6140	-3.0972
33.6232	30.0504
33.6324	5.1987
33.6416	11.3478
33.6508	23.4975
33.6601	14.6478
33.6693	-7.2011
33.6785	-0.0493
33.6877	15.1031
33.6970	26.2563
33.7062	24.4101
33.7154	-5.4354
33.7246	30.7198
33.7338	3.8757
33.7431	19.0322
33.7523	23.1895
33.7615	-2.6525
33.7707	43.5061
33.7800	32.6654
33.7892	9.8254
33.7984	27.9861
33.8076	12.1475
33.8168	40.3096
33.8261	29.4724
33.8353	53.6358
33.8445	9.8000
33.8537	31.9648
33.8630	17.1303
33.8722	29.2965
33.8814	40.4634
33.8906	41.6310
33.8999	16.7993
33.9091	-0.0318
33.9183	37.1379
33.9275	58.3082
33.9367	19.4792
33.9460	21.6509
33.9552	7.8233
33.9644	15.9964
33.9736	33.1702
33.9829	10.3446
33.9921	28.5198
34.0013	6.6956
34.0105	11.8721
34.0197	26.0494
34.0290	46.2273
34.0382	48.4058
34.0474	32.5851
34.0566	28.7651
34.0659	26.9457
34.0751	45.1271
34.0843	29.3091
34.0935	17.4918
34.1028	18.6752
34.1120	22.8593
34.1212	29.0441
34.1304	12.2295
34.1396	50.4157
34.1489	-4.3975
34.1581	16.7901
34.1673	12.9783
34.1765	45.1672
34.1858	22.3568
34.1950	37.5471
34.2042	10.7380
34.2134	25.9297
34.2226	11.1220
34.2319	41.3151
34.2411	34.5088
34.2503	21.7032
34.2595	19.8983
34.2688	19.0941
34.2780	29.2905
34.2872	17.4877
34.2964	34.6855
34.3057	14.8841
34.3149	-13.9167
34.3241	16.2832
34.3333	12.4838
34.3425	43.6851
34.3518	33.8871
34.3610	-6.9103
34.3702	33.2931
34.3794	19.4971
34.3887	29.7018
34.3979	52.9072
34.4071	48.1134
34.4163	-7.6799
34.4255	34.5276
34.4348	45.7358
34.4440	-9.0554
34.4532	46.1542
34.4624	4.3644
34.4717	27.5753
34.4809	3.7869
34.4901	21.9992
34.4993	39.2122
34.5085	28.4259
34.5178	34.6402
34.5270	57.8553
34.5362	-6.9290
34.5454	21.2874
34.5547	-15.4955
34.5639	20.7223
34.5731	6.9408
34.5823	39.1600
34.5916	41.3798
34.6008	48.6004
34.6100	40.8216
34.6192	11.0435
34.6284	2.2661
34.6377	24.4894
34.6469	18.7134
34.6561	12.9381
34.6653	20.1635
34.6746	37.3895
34.6838	70.6162
34.6930	36.8437
34.7022	-2.9282
34.7114	-12.6994
34.7207	59.5301
34.7299	22.7602
34.7391	18.9911
34.7483	28.2227
34.7576	14.4549
34.7668	34.6878
34.7760	33.9214
34.7852	31.1557
34.7945	26.3907
34.8037	-4.3736
34.8129	-1.1372
34.8221	29.0998
34.8313	28.3376
34.8406	27.5760
34.8498	-8.1849
34.8590	22.0549
34.8682	42.2954
34.8775	54.5366
34.8867	19.7785
34.8959	43.0210
34.9051	39.2643
34.9143	-2.4918
34.9236	4.7528
34.9328	64.9981
34.9420	47.2441
34.9512	40.4908
34.9605	59.7382
34.9697	16.9863
34.9789	34.2350
34.9881	28.4844
34.9973	24.7346
35.0066	40.9854
35.0158	37.2369
35.0250	17.4891
35.0342	24.7419
35.0435	12.9955
35.0527	41.2498
35.0619	-10.4953
35.0711	45.7603
35.0804	27.0166
35.0896	20.2736
35.0988	24.5313
35.1080	6.7897
35.1172	13.0488
35.1265	-2.6915
35.1357	22.5690
35.1449	27.8301
35.1541	-7.9081
35.1634	54.3544
35.1726	31.6176
35.1818	34.8815
35.1910	8.1461
35.2002	47.4113
35.2095	43.6773
35.2187	33.9439
35.2279	20.2112
35.2371	31.4792
35.2464	10.7479
35.2556	37.0173
35.2648	20.2874
35.2740	9.5582
35.2833	-3.1704
35.2925	13.1017
35.3017	53.3746
35.3109	20.6481
35.3201	37.9223
35.3294	10.1972
35.3386	18.4727
35.3478	23.7490
35.3570	41.0259
35.3663	29.3036
35.3755	16.5819
35.3847	31.8609
35.3939	3.1406
35.4031	21.4210
35.4124	23.7021
35.4216	18.9839
35.4308	33.2663
35.4400	18.5495
35.4493	20.8333
35.4585	19.1178
35.4677	8.4030
35.4769	68.6889
35.4862	27.9755
35.4954	2.2628
35.5046	-1.4493
35.5138	2.8394
35.5230	13.1287
35.5323	32.4187
35.5415	30.7094
35.5507	26.0008
35.5599	23.2929
35.5692	31.5857
35.5784	10.8791
35.5876	13.1733
35.5968	-11.5319
35.6060	17.7636
35.6153	41.0598
35.6245	18.3567
35.6337	17.6543
35.6429	11.9526
35.6522	39.2516
35.6614	19.5512
35.6706	9.8516
35.6798	3.1526
35.6890	8.4543
35.6983	20.7567
35.7075	37.0598
35.7167	5.3636
35.7259	-7.3320
35.7352	-7.0268
35.7444	0.2790
35.7536	-2.4145
35.7628	21.8928
35.7721	-2.7993
35.7813	-24.4907
35.7905	3.7178
35.7997	12.9271
35.8089	3.1371
35.8182	19.3477
35.8274	22.5590
35.8366	10.7710
35.8458	20.9837
35.8551	24.1971
35.8643	16.4112
35.8735	9.6260
35.8827	28.8414
35.8919	20.0576
35.9012	16.2744
35.9104	45.4919
35.9196	-5.2899
35.9288	19.9290
35.9381	6.1486
35.9473	23.3689
35.9565	15.5898
35.9657	18.8115
35.9750	0.0338
35.9842	9.2568
35.9934	23.4806
36.0026	1.7049
36.0118	19.9300
36.0211	0.1558
36.0303	40.3823
36.0395	12.6094
36.0487	17.8373
36.0580	4.0658
36.0672	27.2950
36.0764	-1.4751
36.0856	7.7555
36.0948	-0.0132
36.1041	11.2187
36.1133	6.4514
36.1225	9.6847
36.1317	5.9187
36.1410	17.1535
36.1502	7.3889
36.1594	12.6249
36.1686	30.8617
36.1778	7.0992
36.1871	-5.6627
36.1963	22.5762
36.2055	22.8157
36.2147	26.0559
36.2240	0.2968
36.2332	0.5384
36.2424	-10.2193
36.2516	2.0237
36.2609	-3.7327
36.2701	-6.4883
36.2793	-0.2433
36.2885	-6.9976
36.2977	6.2489
36.3070	22.4960
36.3162	-18.2563
36.3254	15.9922
36.3346	-10.7586
36.3439	4.4912
36.3531	27.7418
36.3623	26.9930
36.3715	-0.7551
36.3807	18.4975
36.3900	11.7508
36.3992	7.0048
36.4084	6.2594
36.4176	8.5148
36.4269	5.7708
36.4361	20.0275
36.4453	5.2849
36.4545	11.5430
36.4638	9.8018
36.4730	17.0613
36.4822	-7.6785
36.4914	-25.4177
36.5006	16.8439
36.5099	-13.8939
36.5191	-11.6310
36.5283	1.6326
36.5375	4.8969
36.5468	2.1619
36.5560	-31.5724
36.5652	8.6939
36.5744	10.9610
36.5836	21.2287
36.5929	-13.5029
36.6021	22.7662
36.6113	-0.9640
36.6205	6.3065
36.6298	20.5777
36.6390	7.8495
36.6482	-11.8779
36.6574	13.3953
36.6667	8.6693
36.6759	1.9439
36.6851	-11.7808
36.6943	-4.5048
36.7035	6.7718
36.7128	-9.9508
36.7220	39.3272
36.7312	-4.3940
36.7404	-10.1146
36.7497	17.1655
36.7589	23.4463
36.7681	-3.2722
36.7773	-21.9900
36.7865	4.1859
36.7958	20.3626
36.8050	-6.4601
36.8142	-10.2821
36.8234	21.8967
36.8327	16.0761
36.8419	11.2561
36.8511	3.4369
36.8603	31.6184
36.8695	-5.1995
36.8788	9.9834
36.8880	7.1669
36.8972	17.3511
36.9064	9.5360
36.9157	-12.2784
36.9249	24.9079
36.9341	-6.9052
36.9433	-3.7175
36.9526	11.4708
36.9618	-5.3402
36.9710	5.8496
36.9802	7.0400
36.9894	23.2311
36.9987	9.4228
37.0079	-5.3847
37.0171	2.8085
37.0263	13.0023
37.0356	2.1968
37.0448	6.3920
37.0540	-22.4121
37.0632	8.7845
37.0724	-5.0182
37.0817	19.1798
37.0909	25.3785
37.1001	1.5778
37.1093	13.7778
37.1186	-9.0215
37.1278	-4.8200
37.1370	19.3821
37.1462	-4.4152
37.1555	-8.2117
37.1647	21.9925
37.1739	5.1973
37.1831	7.4029
37.1923	23.6091
37.2016	30.8160
37.2108	11.0236
37.2200	21.2319
37.2292	-4.5591
37.2385	13.6505
37.2477	22.8609
37.2569	33.0719
37.2661	22.2836
37.2753	34.4960
37.2846	63.7092
37.2938	105.9229
37.3030	143.1374
37.3122	222.3526
37.3215	283.5685
37.3307	280.7850
37.3399	233.0022
37.3491	151.2201
37.3583	106.4387
37.3676	54.6580
37.3768	21.8780
37.3860	17.0987
37.3952	30.3200
37.4045	24.5421
37.4137	15.7648
37.4229	8.9882
37.4321	-7.7877
37.4414	19.4371
37.4506	16.6626
37.4598	22.8888
37.4690	10.1157
37.4782	18.3432
37.4875	25.5714
37.4967	16.8004
37.5059	28.0300
37.5151	17.2603
37.5244	56.4913
37.5336	86.7229
37.5428	124.9553
37.5520	179.1883
37.5612	142.4221
37.5705	118.6565
37.5797	78.8916
37.5889	33.1274
37.5981	34.3639
37.6074	22.6011
37.6166	19.8390
37.6258	-6.9225
37.6350	35.3168
37.6443	12.5567
37.6535	11.7973
37.6627	11.0386
37.6719	5.2806
37.6811	-13.4767
37.6904	3.7666
37.6996	-12.9893
37.7088	-2.7882
37.7180	12.4136
37.7273	4.6161
37.7365	40.8193
37.7457	6.0232
37.7549	9.2278
37.7641	-2.5670
37.7734	9.6390
37.7826	26.8456
37.7918	11.0529
37.8010	27.2609
37.8103	4.4696
37.8195	25.6790
37.8287	12.8890
37.8379	20.0998
37.8472	11.3112
37.8564	15.5234
37.8656	17.7362
37.8748	11.9497
37.8840	-0.8361
37.8933	10.3787
37.9025	-1.4057
37.9117	-3.1894
37.9209	1.0275
37.9302	-12.7548
37.9394	15.4635
37.9486	12.6825
37.9578	14.9022
37.9670	19.1226
37.9763	26.3436
37.9855	15.5654
37.9947	3.7878
38.0039	-11.9890
38.0132	-2.9307
38.0224	-2.8717
38.0316	11.1880
38.0408	-0.7516
38.0500	-11.6905
38.0593	16.3713
38.0685	-7.5663
38.0777	5.4969
38.0869	20.5607
38.0962	-13.3748
38.1054	-9.3095
38.1146	1.7564
38.1238	2.8229
38.1331	10.8902
38.1423	-11.0418
38.1515	11.0268
38.1607	19.0962
38.1699	37.1662
38.1792	2.2369
38.1884	23.3083
38.1976	18.3804
38.2068	-0.5468
38.2161	34.5266
38.2253	4.6008
38.2345	22.6756
38.2437	-5.2488
38.2529	27.8274
38.2622	28.9043
38.2714	0.9819
38.2806	15.0601
38.2898	19.1391
38.2991	2.2188
38.3083	17.2991
38.3175	31.3801
38.3267	16.4619
38.3360	8.5443
38.3452	-0.3726
38.3544	22.7111
38.3636	0.7956
38.3728	-2.1192
38.3821	8.9666
38.3913	10.0531
38.4005	26.1404
38.4097	9.2283
38.4190	-8.6831
38.4282	6.4062
38.4374	1.4961
38.4466	14.5868
38.4558	-7.3219
38.4651	8.7702
38.4743	16.8629
38.4835	8.9563
38.4927	19.0504
38.5020	12.1452
38.5112	12.2407
38.5204	25.3368
38.5296	-1.5663
38.5388	13.5312
38.5481	21.6295
38.5573	11.7284
38.5665	20.8280
38.5757	37.9283
38.5850	34.0293
38.5942	2.1309
38.6034	2.2333
38.6126	-7.6637
38.6219	7.4401
38.6311	27.5445
38.6403	15.6496
38.6495	-3.2446
38.6587	-0.1381
38.6680	22.9690
38.6772	-12.9231
38.6864	4.1854
38.6956	2.2947
38.7049	4.4046
38.7141	-5.4848
38.7233	10.6265
38.7325	-0.2615
38.7417	22.8511
38.7510	-1.0355
38.7602	-0.9214
38.7694	22.1933
38.7786	-1.6913
38.7879	-2.5752
38.7971	22.5416
38.8063	5.6591
38.8155	6.7773
38.8248	-0.1039
38.8340	4.0157
38.8432	12.1359
38.8524	-0.7431
38.8616	20.3785
38.8709	27.5008
38.8801	-7.3762
38.8893	5.7475
38.8985	1.8718
38.9078	-0.0031
38.9170	-4.8774
38.9262	14.2490
38.9354	28.3762
38.9446	7.5040
38.9539	16.6325
38.9631	18.7616
38.9723	13.8915
38.9815	14.0221
38.9908	6.1533
39.0000	18.2852
39.0092	17.4179
39.0184	9.5512
39.0277	35.6852
39.0369	39.8199
39.0461	-2.0448
39.0553	-10.9087
39.0645	-10.9316
39.0738	23.0461
39.0830	16.0246
39.0922	8.0038
39.1014	5.9836
39.1107	0.9641
39.1199	5.9453
39.1291	16.9272
39.1383	17.9098
39.1475	24.8931
39.1568	2.8771
39.1660	20.8617
39.1752	3.8470
39.1844	10.8331
39.1937	10.8198
39.2029	-14.1928
39.2121	7.7953
39.2213	31.7841
39.2305	29.7735
39.2398	13.7637
39.2490	18.7545
39.2582	16.7461
39.2674	1.7383
39.2767	16.7312
39.2859	11.7248
39.2951	-5.2810
39.3043	-7.2860
39.3136	-5.2903
39.3228	-6.2940
39.3320	29.7031
39.3412	12.7008
39.3504	11.6992
39.3597	14.6983
39.3689	6.6981
39.3781	4.6985
39.3873	16.6997
39.3966	17.7015
39.4058	25.7041
39.4150	-5.2927
39.4242	2.7112
39.4334	-0.2842
39.4427	12.7211
39.4519	32.7271
39.4611	2.7337
39.4703	4.7411
39.4796	8.7491
39.4888	-1.2421
39.4980	3.7673
39.5072	17.7774
39.5165	8.7882
39.5257	17.7996
39.5349	8.8118
39.5441	13.8247
39.5533	15.8382
39.5626	-0.1476
39.5718	-7.1327
39.5810	12.8830
39.5902	27.8992
39.5995	15.9162
39.6087	14.9339
39.6179	16.9523
39.6271	12.9713
39.6363	-1.0090
39.6456	-11.9886
39.6548	1.9693
39.6640	19.9278
39.6732	28.8870
39.6825	-2.1531
39.6917	21.8075
39.7009	2.7688
39.7101	24.7308
39.7193	-0.3066
39.7286	33.6568
39.7378	5.6208
39.7470	16.5855
39.7562	10.5509
39.7655	19.5170
39.7747	9.4838
39.7839	-3.5487
39.7931	8.4194
39.8024	-2.6117
39.8116	8.3578
39.8208	-0.6720
39.8300	14.2990
39.8392	-20.7294
39.8485	-5.7572
39.8577	20.2158
39.8669	24.1895
39.8761	21.1638
39.8854	3.1389
39.8946	16.1146
39.9038	27.0910
39.9130	0.0681
39.9222	-15.9541
39.9315	9.0244
39.9407	4.0035
39.9499	-12.0166
39.9591	23.9639
39.9684	7.9452
39.9776	11.9271
39.9868	15.9097
39.9960	-18.1070
40.0053	5.8769
40.0145	29.8616
40.0237	22.8470
40.0329	10.8330
40.0421	-10.1803
40.0514	7.8072
40.0606	31.7953
40.0698	8.7841
40.0790	8.7735
40.0883	11.7637
40.0975	5.7546
40.1067	19.7461
40.1159	11.7384
40.1251	25.7313
40.1344	-0.2751
40.1436	3.7192
40.1528	13.7142
40.1620	-3.2902
40.1713	16.7062
40.1805	14.7033
40.1897	-20.2990
40.1989	14.6994
40.2082	0.6985
40.2174	7.6983
40.2266	21.6988
40.2358	16.7000
40.2450	2.7019
40.2543	7.7044
40.2635	20.7076
40.2727	10.7116
40.2819	0.7162
40.2912	-9.2785
40.3004	-12.2725
40.3096	12.7342
40.3188	-22.2585
40.3280	5.7496
40.3373	-6.2417
40.3465	51.7678
40.3557	19.7779
40.3649	11.7887
40.3742	17.8002
40.3834	1.8124
40.3926	8.8252
40.4018	2.8388
40.4110	2.8530
40.4203	-3.1320
40.4295	2.8836
40.4387	15.8999
40.4479	-17.0831
40.4572	5.9346
40.4664	1.9529
40.4756	30.9720
40.4848	-0.0082
40.4941	5.0122
40.5033	9.0333
40.5125	16.0551
40.5217	16.0776
40.5309	0.1008
40.5402	0.1247
40.5494	-7.8507
40.5586	18.1745
40.5678	11.2004
40.5771	8.2271
40.5863	11.2544
40.5955	-7.7176
40.6047	5.3111
40.6139	-9.6595
40.6232	-1.6295
40.6324	14.4013
40.6416	12.4327
40.6508	8.4648
40.6601	22.4977
40.6693	-5.4688
40.6785	-1.4346
40.6877	2.6002
40.6970	34.6358
40.7062	11.6721
40.7154	6.7090
40.7246	-11.2533
40.7338	8.7850
40.7431	9.8240
40.7523	4.8637
40.7615	17.9041
40.7707	15.9451
40.7800	21.9869
40.7892	8.0293
40.7984	18.0725
40.8076	15.1163
40.8168	7.1608
40.8261	5.2060
40.8353	16.2519
40.8445	15.2985
40.8537	12.3457
40.8630	-10.6063
40.8722	17.4423
40.8814	-4.5083
40.8906	-0.4583
40.8998	8.5924
40.9091	10.6438
40.9183	-14.3042
40.9275	-8.2514
40.9367	1.8021
40.9460	18.8562
40.9552	1.9110
40.9644	20.9665
40.9736	24.0227
40.9829	-10.9204
40.9921	-10.8628
41.0013	2.1482
41.0105	-1.8400
41.0197	5.1724
41.0290	10.1855
41.0382	4.1992
41.0474	0.2137
41.0566	3.2289
41.0659	15.2447
41.0751	10.2612
41.0843	-16.7216
41.0935	-5.7037
41.1027	-12.6851
41.1120	13.3342
41.1212	0.3542
41.1304	-12.6252
41.1396	17.3962
41.1489	1.4182
41.1581	34.4409
41.1673	18.4644
41.1765	31.4885
41.1858	15.5132
41.1950	15.5387
41.2042	0.5649
41.2134	12.5917
41.2226	-15.3807
41.2319	-2.3525
41.2411	7.6764
41.2503	4.7060
41.2595	-9.2637
41.2688	-1.2328
41.2780	-0.2011
41.2872	-7.1687
41.2964	-0.1357
41.3056	19.8980
41.3149	18.9324
41.3241	-1.0325
41.3333	8.0033
41.3425	8.0398
41.3518	-12.9230
41.3610	16.1148
41.3702	-6.8466
41.3794	16.1926
41.3887	11.2325
41.3979	1.2731
41.4071	14.3144
41.4163	3.3564
41.4255	7.3991
41.4348	3.4424
41.4440	-8.5135
41.4532	18.5312
41.4624	9.5766
41.4717	17.6227
41.4809	15.6695
41.4901	-1.2830
41.4993	1.7652
41.5085	-13.1860
41.5178	18.8636
41.5270	-0.0862
41.5362	-4.0353
41.5454	15.0163
41.5547	20.0686
41.5639	37.1216
41.5731	-16.8247
41.5823	-10.7703
41.5915	5.2077
41.6008	0.1864
41.6100	22.1657
41.6192	18.1458
41.6284	19.1266
41.6377	26.1080
41.6469	14.0901
41.6561	30.0729
41.6653	14.0564
41.6746	15.0406
41.6838	4.0255
41.6930	-7.9889
41.7022	11.9973
41.7114	14.9843
41.7207	0.9719
41.7299	13.9602
41.7391	5.9492
41.7483	4.9389
41.7576	-0.0707
41.7668	6.9204
41.7760	35.9121
41.7852	20.9046
41.7944	28.8977
41.8037	34.8915
41.8129	12.8861
41.8221	24.8812
41.8313	23.8771
41.8406	0.8737
41.8498	23.8710
41.8590	15.8689
41.8682	16.8676
41.8775	5.8669
41.8867	14.8669
41.8959	7.8676
41.9051	5.8690
41.9143	1.8711
41.9236	3.8738
41.9328	-8.1227
41.9420	14.8814
41.9512	-2.1138
41.9605	20.8918
41.9697	1.8980
41.9789	1.9048
41.9881	9.9124
41.9973	-3.0793
42.0066	10.9296
42.0158	0.9393
42.0250	8.9496
42.0342	-5.0394
42.0435	-3.0277
42.0527	15.9847
42.0619	1.9978
42.0711	-11.9884
42.0803	-0.9974
42.0896	12.9943
42.0988	31.9867
42.1080	16.9798
42.1172	-2.0264
42.1265	30.9681
42.1357	32.9633
42.1449	1.9591
42.1541	8.9556
42.1634	31.9529
42.1726	8.9508
42.1818	37.9494
42.1910	5.9487
42.2002	9.9486
42.2095	5.9493
42.2187	29.9506
42.2279	25.9527
42.2371	-1.0446
42.2464	0.9588
42.2556	19.9629
42.2648	13.9677
42.2740	1.9732
42.2832	4.9793
42.2925	13.9862
42.3017	2.9937
42.3109	-1.9980
42.3201	10.0109
42.3294	17.0205
42.3386	13.0308
42.3478	13.0417
42.3570	6.0534
42.3663	17.0658
42.3755	7.0788
42.3847	17.0925
42.3939	-4.8930
42.4031	31.1221
42.4124	16.1379
42.4216	-9.8457
42.4308	20.1715
42.4400	27.1894
42.4493	-16.7921
42.4585	6.2272
42.4677	14.2471
42.4769	24.2677
42.4861	-7.7110
42.4954	11.3110
42.5046	-11.6664
42.5138	35.3570
42.5230	8.3811
42.5323	4.4058
42.5415	7.4312
42.5507	3.4573
42.5599	7.4841
42.5691	-12.4884
42.5784	-6.5011
42.5876	1.4869
42.5968	14.4755
42.6060	11.4648
42.6153	4.4549
42.6245	19.4456
42.6337	16.4370
42.6429	-7.5709
42.6522	25.4218
42.6614	1.4153
42.6706	-4.5905
42.6798	-4.5957
42.6890	32.3998
42.6983	-10.6039
42.7075	1.3930
42.7167	10.3905
42.7259	29.3888
42.7352	5.3878
42.7444	27.3875
42.7536	8.3878
42.7628	24.3888
42.7720	6.3905
42.7813	10.3930
42.7905	7.3961
42.7997	5.3998
42.8089	18.4043
42.8182	-1.5905
42.8274	24.4153
42.8366	1.4218
42.8458	-0.5709
42.8551	19.4370
42.8643	-6.5544
42.8735	7.4549
42.8827	16.4648
42.8919	-2.5245
42.9012	0.4869
42.9104	2.4989
42.9196	-11.4884
42.9288	-1.5226
42.9381	14.4439
42.9473	8.4111
42.9565	24.3790
42.9657	-10.6525
42.9749	14.3168
42.9842	9.2867
42.9934	14.2574
43.0026	-6.7713
43.0118	35.2007
43.0211	-1.8266
43.0303	27.1467
43.0395	17.1208
43.0487	4.0955
43.0580	-11.9290
43.0672	12.0471
43.0764	14.0239
43.0856	10.0014
43.0948	20.9796
43.1041	14.9585
43.1133	-2.0619
43.1225	-9.0817
43.1317	-7.1007
43.1410	10.8809
43.1502	10.8632
43.1594	11.8462
43.1686	21.8299
43.1778	36.8143
43.1871	5.7994
43.1963	-13.2149
43.2055	24.7716
43.2147	20.7587
43.2240	9.7465
43.2332	25.7350
43.2424	-19.2758
43.2516	32.7141
43.2608	15.7047
43.2701	36.6960
43.2793	11.6879
43.2885	-10.3195
43.2977	7.6739
43.3070	23.6679
43.3162	-8.3374
43.3254	35.6580
43.3346	51.6540
43.3439	62.6508
43.3531	102.6483
43.3623	138.6464
43.3715	174.6452
43.3807	171.6447
43.3900	124.6449
43.3992	55.6458
43.4084	43.6474
43.4176	4.6497
43.4269	26.6526
43.4361	15.6563
43.4453	9.6606
43.4545	0.6656
43.4637	26.6713
43.4730	-6.3223
43.4822	10.6848
43.4914	13.6926
43.5006	-0.2990
43.5099	-0.2898
43.5191	-7.2800
43.5283	14.7305
43.5375	-2.2583
43.5468	23.7536
43.5560	11.7662
43.5652	-5.2205
43.5744	6.7935
43.5836	9.8081
43.5929	12.8234
43.6021	15.8395
43.6113	7.8562
43.6205	26.8736
43.6298	54.8917
43.6390	88.9104
43.6482	87.9299
43.6574	70.9501
43.6666	35.9709
43.6759	46.9924
43.6851	22.0146
43.6943	4.0375
43.7035	2.0611
43.7128	5.0854
43.7220	17.1104
43.7312	19.1360
43.7404	-3.8376
43.7496	30.1894
43.7589	-11.7829
43.7681	-4.7545
43.7773	19.2746
43.7865	22.3044
43.7958	-1.6651
43.8050	21.3660
43.8142	9.3979
43.8234	17.4304
43.8327	11.4636
43.8419	-7.5025
43.8511	15.5321
43.8603	16.5674
43.8695	2.6034
43.8788	-2.3600
43.8880	6.6774
43.8972	4.7154
43.9064	-0.2459
43.9157	1.7935
43.9249	19.8336
43.9341	0.8744
43.9433	7.9159
43.9525	2.9581
43.9618	16.0009
43.9710	-18.9555
43.9802	11.0887
43.9894	0.1336
43.9987	11.1792
44.0079	3.2255
44.0171	-20.7275
44.0263	3.3201
44.0356	15.3685
44.0448	6.4175
44.0540	1.4673
44.0632	1.5177
44.0724	30.5688
44.0817	5.6206
44.0909	6.6730
44.1001	17.7262
44.1093	21.7801
44.1186	-15.1654
44.1278	0.8898
44.1370	10.9458
44.1462	9.0024
44.1554	16.0597
44.1647	1.1177
44.1739	22.1763
44.1831	-4.7643
44.1923	7.2957
44.2016	22.3565
44.2108	2.4179
44.2200	1.4800
44.2292	3.5428
44.2385	3.6063
44.2477	5.6705
44.2569	15.7353
44.2661	-0.1991
44.2753	14.8671
44.2846	-20.0660
44.2938	2.0016
44.3030	9.0699
44.3122	-3.8611
44.3215	-2.7914
44.3307	8.2790
44.3399	3.3500
44.3491	6.4218
44.3583	8.4942
44.3676	3.5673
44.3768	-4.3589
44.3860	4.7156
44.3952	13.7908
44.4045	10.8667
44.4137	9.9432
44.4229	2.0205
44.4321	-6.9016
44.4413	26.1770
44.4506	6.2563
44.4598	-0.6637
44.4690	-10.5830
44.4782	-6.5002
44.4875	19.5832
44.4967	9.6673
44.5059	-4.2478
44.5151	16.8377
44.5244	-8.0761
44.5336	14.0107
44.5428	12.0983
44.5520	14.1866
44.5612	24.2755
44.5705	-2.6348
44.5797	5.4555
44.5889	-4.4535
44.5981	15.6382
44.6074	-3.2694
44.6166	-0.1763
44.6258	-1.0826
44.6350	-15.9881
44.6442	2.0491
44.6535	8.0869
44.6627	-9.8745
44.6719	27.1647
44.6811	3.2046
44.6904	27.2452
44.6996	25.2865
44.7088	1.3285
44.7180	-5.6288
44.7273	20.4145
44.7365	18.4586
44.7457	13.5033
44.7549	2.5487
44.7641	9.5948
44.7734	-1.3584
44.7826	-4.3109
44.7918	-1.2627
44.8010	21.7861
44.8103	-0.1643
44.8195	-1.1141
44.8287	8.9368
44.8379	-7.0115
44.8471	20.0408
44.8564	-9.9063
44.8656	17.1474
44.8748	-12.7982
44.8840	-4.7432
44.8933	3.3126
44.9025	5.3690
44.9117	3.4261
44.9209	28.4839
44.9301	-17.4576
44.9394	-1.3984
44.9486	12.6615
44.9578	3.7220
44.9670	6.7833
44.9763	15.8452
44.9855	18.9078
44.9947	5.9711
45.0039	1.0351
45.0132	15.0998
45.0224	9.1652
45.0316	-1.7688
45.0408	12.2980
45.0500	-17.6346
45.0593	2.4335
45.0685	12.5023
45.0777	-4.4282
45.0869	-11.3580
45.0962	18.7129
45.1054	5.7844
45.1146	11.8567
45.1238	-18.0704
45.1330	1.0032
45.1423	7.0775
45.1515	12.1525
45.1607	-5.7718
45.1699	-3.6954
45.1792	8.3817
45.1884	-8.5406
45.1976	5.5379
45.2068	-4.3830
45.2161	5.6968
45.2253	5.7773
45.2345	4.8585
45.2437	-13.0596
45.2529	18.0229
45.2622	17.1062
45.2714	0.1901
45.2806	4.2748
45.2898	7.3601
45.2991	-1.5539
45.3083	24.5328
45.3175	-6.3798
45.3267	16.7082
45.3359	8.7970
45.3452	-8.1136
45.3544	20.9766
45.3636	9.0674
45.3728	8.1589
45.3821	15.2511
45.3913	-10.6560
45.4005	3.4375
45.4097	-2.4682
45.4190	30.6268
45.4282	-10.2776
45.4374	3.8187
45.4466	-2.0843
45.4558	-3.9866
45.4651	6.1118
45.4743	2.2109
45.4835	-8.6894
45.4927	10.4111
45.5020	-12.4878
45.5112	-9.4245
45.5204	-7.3606
45.5296	-2.2959
45.5388	-0.2306
45.5481	7.8354
45.5573	7.9021
45.5665	3.9695
45.5757	12.0375
45.5850	9.1063
45.5942	5.1757
45.6034	10.2459
45.6126	17.3167
45.6218	-8.6118
45.6311	0.4604
45.6403	3.5333
45.6495	5.6069
45.6587	-0.3189
45.6680	13.7561
45.6772	13.8317
45.6864	10.9080
45.6956	14.9851
45.7049	11.0628
45.7141	7.1411
45.7233	5.2202
45.7325	-0.7000
45.7417	6.3804
45.7510	-0.5384
45.7602	18.5434
45.7694	15.6259
45.7786	19.7091
45.7879	-9.2070
45.7971	6.8776
45.8063	7.9629
45.8155	16.0488
45.8247	10.1355
45.8340	-0.7772
45.8432	3.3108
45.8524	38.3995
45.8616	18.4889
45.8709	3.5790
45.8801	1.6698
45.8893	-8.2388
45.8985	20.8534
45.9078	11.9462
45.9170	-9.9603
45.9262	8.1339
45.9354	29.2288
45.9446	11.3244
45.9539	8.4207
45.9631	12.5177
45.9723	13.6153
45.9815	9.7136
45.9908	-6.1873
46.0000	-7.0876
46.0092	15.0128
46.0184	-11.8861
46.0276	25.2156
46.0369	0.3181
46.0461	8.4213
46.0553	26.5251
46.0645	3.6296
46.0738	-18.2652
46.0830	5.8407
46.0922	12.9473
46.1014	13.0546
46.1106	10.1626
46.1199	14.2712
46.1291	17.3806
46.1383	5.4906
46.1475	6.6013
46.1568	-1.2873
46.1660	12.8248
46.1752	7.9376
46.1844	4.0511
46.1937	8.1652
46.2029	9.2801
46.2121	19.3956
46.2213	8.5118
46.2305	4.6287
46.2398	7.7463
46.2490	2.8646
46.2582	0.9836
46.2674	30.1033
46.2767	29.2236
46.2859	20.3446
46.2951	15.4664
46.3043	1.5888
46.3135	25.7119
46.3228	26.8357
46.3320	2.9601
46.3412	15.0853
46.3504	1.2112
46.3597	-4.6623
46.3689	13.4649
46.3781	-11.4072
46.3873	20.7214
46.3966	5.8507
46.4058	29.9807
46.4150	1.1114
46.4242	10.2427
46.4334	7.3748
46.4427	6.5075
46.4519	9.6409
46.4611	-16.2250
46.4703	39.9098
46.4796	-4.9547
46.4888	12.1815
46.4980	2.3183
46.5072	-0.5441
46.5164	-7.4059
46.5257	-4.2670
46.5349	8.8726
46.5441	-9.9871
46.5533	-8.0094
46.5626	8.9691
46.5718	15.9482
46.5810	-1.0721
46.5902	13.9084
46.5995	9.8896
46.6087	24.8714
46.6179	10.8539
46.6271	26.8372
46.6363	-1.1789
46.6456	8.8057
46.6548	15.7910
46.6640	11.7769
46.6732	11.7636
46.6825	3.7509
46.6917	5.7390
46.7009	9.7277
46.7101	9.7171
46.7193	-6.2928
46.7286	16.6980
46.7378	12.6895
46.7470	31.6816
46.7562	1.6745
46.7655	-2.3320
46.7747	13.6623
46.7839	4.6572
46.7931	24.6528
46.8023	2.6491
46.8116	20.6461
46.8208	7.6437
46.8300	19.6421
46.8392	-2.3589
46.8485	22.6409
46.8577	3.6413
46.8669	18.6424
46.8761	2.6442
46.8854	6.6467
46.8946	-3.3502
46.9038	26.6537
46.9130	8.6582
46.9222	20.6635
46.9315	23.6694
46.9407	3.6760
46.9499	8.6833
46.9591	6.6913
46.9684	-4.3001
46.9776	-10.2907
46.9868	5.7194
46.9960	8.7301
47.0052	20.7415
47.0145	-7.2464
47.0237	0.7664
47.0329	-2.2201
47.0421	15.7941
47.0514	2.8090
47.0606	7.8245
47.0698	3.8407
47.0790	10.8577
47.0883	20.8753
47.0975	23.8936
47.1067	3.9126
47.1159	-1.0677
47.1251	8.9526
47.1344	5.9737
47.1436	-0.0046
47.1528	-5.9821
47.1620	0.0410
47.1713	-1.9352
47.1805	18.0893
47.1897	-2.8855
47.1989	25.1403
47.2081	-0.8331
47.2174	4.1941
47.2266	12.2221
47.2358	6.2507
47.2450	8.2800
47.2543	-6.6900
47.2635	2.3407
47.2727	19.3720
47.2819	4.4041
47.2911	-1.5631
47.3004	9.4703
47.3096	-4.4956
47.3188	20.5392
47.3280	-9.4253
47.3373	7.6109
47.3465	12.6478
47.3557	5.6853
47.3649	22.7236
47.3742	6.7625
47.3834	20.8022
47.3926	14.8425
47.4018	4.8835
47.4110	-11.0748
47.4203	-3.0325
47.4295	16.0106
47.4387	7.0544
47.4479	-2.9012
47.4572	5.1439
47.4664	7.1898
47.4756	22.2363
47.4848	6.2835
47.4940	8.3313
47.5033	-11.6201
47.5125	22.4292
47.5217	16.4791
47.5309	-3.4703
47.5402	4.5811
47.5494	17.6331
47.5586	11.6858
47.5678	17.7391
47.5771	13.7932
47.5863	3.8480
47.5955	20.9034
47.6047	-10.0404
47.6139	-0.9836
47.6232	20.0739
47.6324	19.1321
47.6416	3.1910
47.6508	-9.7494
47.6601	0.3108
47.6693	1.3718
47.6785	7.4334
47.6877	-3.5043
47.6969	0.5587
47.7062	20.6224
47.7154	-1.3132
47.7246	16.7519
47.7338	35.8177
47.7431	0.8841
47.7523	6.9513
47.7615	4.0191
47.7707	26.0876
47.7800	14.1568
47.7892	22.2267
47.7984	4.2973
47.8076	4.3686
47.8168	-6.5595
47.8261	-9.4868
47.8353	-3.9600
47.8445	-5.4326
47.8537	17.0956
47.8630	14.6244
47.8722	6.1540
47.8814	-7.3158
47.8906	5.2151
47.8998	-15.2533
47.9091	1.2790
47.9183	-0.1880
47.9275	-9.6544
47.9367	5.8800
47.9460	-8.5850
47.9552	0.9507
47.9644	6.4871
47.9736	2.0242
47.9828	-2.4380
47.9921	-9.8995
48.0013	-10.1980
