11.0000	-22.0756
11.0092	-14.9310
11.0184	12.8807
11.0277	-0.6403
11.0369	-32.8275
11.0461	-4.8312
11.0553	8.4989
11.0646	-15.5039
11.0738	14.7470
11.0830	-41.3709
11.0922	18.4582
11.1014	5.3074
11.1107	21.0267
11.1199	-12.5481
11.1291	34.3119
11.1383	9.7984
11.1476	22.4444
11.1568	-7.5076
11.1660	-19.7587
11.1752	16.7828
11.1845	-13.1155
11.1937	66.2168
11.2029	24.9868
11.2121	-36.2400
11.2213	-20.4225
11.2306	46.6619
11.2398	39.9021
11.2490	-73.8671
11.2582	16.1710
11.2675	10.8266
11.2767	-6.4213
11.2859	23.1520
11.2951	-11.4226
11.3043	-8.3272
11.3136	18.2131
11.3228	61.1130
11.3320	29.4754
11.3412	-37.3851
11.3505	-20.3065
11.3597	-4.7869
11.3689	2.6633
11.3781	24.4822
11.3874	24.6796
11.3966	-24.3597
11.4058	22.7923
11.4150	22.4983
11.4242	-13.6952
11.4335	-12.4430
11.4427	16.0038
11.4519	-34.4649
11.4611	23.7072
11.4704	-19.0151
11.4796	12.0844
11.4888	-21.1856
11.4980	10.6805
11.5072	2.4801
11.5165	-24.3388
11.5257	16.5328
11.5349	49.4699
11.5441	28.9780
11.5534	31.6607
11.5626	7.8205
11.5718	13.4926
11.5810	2.3958
11.5902	25.4101
11.5995	-19.3915
11.6087	4.9837
11.6179	18.3954
11.6271	13.1717
11.6364	18.1579
11.6456	11.4228
11.6548	-2.6092
11.6640	-16.6063
11.6733	43.9310
11.6825	-2.3396
11.6917	-17.8429
11.7009	-19.1342
11.7101	-12.8458
11.7194	16.4938
11.7286	19.2360
11.7378	18.9705
11.7470	-20.4712
11.7563	65.5351
11.7655	46.8594
11.7747	-1.8645
11.7839	77.3759
11.7931	-27.6822
11.8024	25.1023
11.8116	-2.6842
11.8208	59.8835
11.8300	-10.4596
11.8393	-33.6158
11.8485	14.3972
11.8577	16.1354
11.8669	57.3850
11.8762	16.1835
11.8854	9.5751
11.8946	14.7452
11.9038	18.4239
11.9130	23.3210
11.9223	11.8343
11.9315	-6.1304
11.9407	44.8693
11.9499	-15.0663
11.9592	0.9212
11.9684	-5.7802
11.9776	14.0337
11.9868	18.6360
11.9960	-4.4205
12.0053	24.2276
12.0145	-9.6278
12.0237	54.8343
12.0329	12.0818
12.0422	22.5502
12.0514	20.3287
12.0606	-10.6989
12.0698	32.8423
12.0791	2.3897
12.0883	35.4926
12.0975	11.7617
12.1067	0.6630
12.1159	18.6759
12.1252	25.4948
12.1344	64.4100
12.1436	-0.4551
12.1528	-2.1039
12.1621	-17.5934
12.1713	-2.6673
12.1805	20.7715
12.1897	29.3183
12.1989	8.0044
12.2082	-7.3491
12.2174	51.0662
12.2266	-10.7477
12.2358	72.3160
12.2451	45.1663
12.2543	44.7428
12.2635	-11.4692
12.2727	0.9305
12.2819	-10.1739
12.2912	-21.6759
12.3004	40.6485
12.3096	-2.9160
12.3188	-21.2729
12.3281	3.7920
12.3373	12.8957
12.3465	17.2844
12.3557	51.9130
12.3650	51.6544
12.3742	35.0991
12.3834	31.6310
12.3926	52.1037
12.4018	58.0123
12.4111	31.5415
12.4203	13.0512
12.4295	56.7548
12.4387	-63.4745
12.4480	18.5917
12.4572	15.2526
12.4664	17.8826
12.4756	-18.2240
12.4848	-10.7474
12.4941	31.1059
12.5033	-23.1373
12.5125	76.6260
12.5217	-1.0808
12.5310	15.2465
12.5402	33.5272
12.5494	-4.5495
12.5586	40.3677
12.5679	22.3256
12.5771	33.4510
12.5863	-8.3226
12.5955	3.2208
12.6047	-3.4514
12.6140	7.7019
12.6232	18.4153
12.6324	21.9508
12.6416	-3.5176
12.6509	38.9456
12.6601	18.2976
12.6693	37.1866
12.6785	12.8411
12.6877	28.9572
12.6970	54.5675
12.7062	20.6985
12.7154	20.7680
12.7246	3.6266
12.7339	-0.4797
12.7431	-2.2436
12.7523	49.4926
12.7615	33.5093
12.7707	-9.5345
12.7800	42.6253
12.7892	35.7971
12.7984	28.1304
12.8076	34.6413
12.8169	59.9784
12.8261	15.7005
12.8353	30.2603
12.8445	9.2296
12.8538	-7.2644
12.8630	42.9367
12.8722	39.5868
12.8814	5.3884
12.8906	-4.1174
12.8999	30.6509
12.9091	27.5065
12.9183	78.9624
12.9275	74.2156
12.9368	95.7161
12.9460	96.8538
12.9552	139.5489
12.9644	202.2337
12.9736	256.7599
12.9829	436.0017
12.9921	537.0831
13.0013	414.2717
13.0105	212.3250
13.0198	72.5204
13.0290	61.2097
13.0382	30.3814
13.0474	86.1301
13.0567	131.8697
13.0659	39.2592
13.0751	13.3126
13.0843	25.5460
13.0935	8.6474
13.1028	6.0668
13.1120	55.7799
13.1212	17.4100
13.1304	-26.2376
13.1397	-15.4436
13.1489	22.3034
13.1581	58.6106
13.1673	14.8189
13.1765	22.3138
13.1858	7.7713
13.1950	-2.2755
13.2042	38.4981
13.2134	44.4699
13.2227	50.2138
13.2319	-14.6673
13.2411	-10.8448
13.2503	39.2399
13.2596	38.6584
13.2688	34.8223
13.2780	45.6798
13.2872	-18.7249
13.2964	3.9815
13.3057	17.9272
13.3149	45.1394
13.3241	7.5103
13.3333	38.0891
13.3426	20.4512
13.3518	-16.8868
13.3610	18.8137
13.3702	73.7945
13.3794	72.2048
13.3887	9.3784
13.3979	29.8558
13.4071	7.6806
13.4163	-11.6921
13.4256	31.7781
13.4348	7.5954
13.4440	28.6150
13.4532	29.3254
13.4624	16.4065
13.4717	-23.1299
13.4809	19.0160
13.4901	-11.5392
13.4993	54.7279
13.5086	5.9799
13.5178	14.3231
13.5270	3.9735
13.5362	11.2037
13.5455	15.0053
13.5547	-2.7132
13.5639	-5.7401
13.5731	46.7379
13.5823	-10.4996
13.5916	13.5727
13.6008	41.9590
13.6100	38.0086
13.6192	24.2215
13.6285	28.8012
13.6377	30.7746
13.6469	52.2240
13.6561	0.8917
13.6653	40.9765
13.6746	-5.4082
13.6838	-7.2306
13.6930	28.5626
13.7022	15.8542
13.7115	-15.7204
13.7207	-3.1548
13.7299	-17.8717
13.7391	13.2619
13.7484	35.0207
13.7576	54.5389
13.7668	32.3704
13.7760	0.5861
13.7852	8.0207
13.7945	78.1181
13.8037	65.3387
13.8129	43.7705
13.8221	14.0752
13.8314	10.6963
13.8406	-4.3835
13.8498	18.9470
13.8590	19.0844
13.8682	-4.3896
13.8775	-2.8964
13.8867	17.4029
13.8959	-4.6110
13.9051	36.4218
13.9144	26.2229
13.9236	24.7395
13.9328	8.1601
13.9420	19.3155
13.9512	9.1067
13.9605	27.7981
13.9697	46.7735
13.9789	40.2105
13.9881	44.4807
13.9974	15.0605
14.0066	13.2376
14.0158	10.8520
14.0250	1.5320
14.0343	46.3010
14.0435	10.5199
14.0527	-7.1768
14.0619	3.1568
14.0711	44.8911
14.0804	44.5389
14.0896	57.2509
14.0988	56.0802
14.1080	57.6003
14.1173	5.6301
14.1265	15.0961
14.1357	20.9083
14.1449	37.1457
14.1541	15.3153
14.1634	-23.5481
14.1726	-0.3250
14.1818	-23.0098
14.1910	1.0524
14.2003	55.3407
14.2095	8.3980
14.2187	47.3708
14.2279	39.3777
14.2372	34.5227
14.2464	19.4696
14.2556	14.7406
14.2648	64.6291
14.2740	31.1110
14.2833	13.7515
14.2925	0.2064
14.3017	6.8055
14.3109	8.3552
14.3202	20.6510
14.3294	31.4695
14.3386	12.1224
14.3478	-32.5763
14.3570	20.6282
14.3663	19.8439
14.3755	13.6603
14.3847	6.9069
14.3939	46.3589
14.4032	18.8687
14.4124	-4.5321
14.4216	0.6809
14.4308	40.4850
14.4401	51.6945
14.4493	64.8980
14.4585	45.0085
14.4677	24.5332
14.4769	25.3438
14.4862	8.0077
14.4954	17.9512
14.5046	38.8108
14.5138	20.0791
14.5231	-19.4960
14.5323	11.7680
14.5415	-7.7036
14.5507	15.6272
14.5599	5.2400
14.5692	17.2494
14.5784	56.0979
14.5876	19.0710
14.5968	1.6015
14.6061	27.6800
14.6153	38.7408
14.6245	18.0539
14.6337	35.2933
14.6429	16.8115
14.6522	29.8487
14.6614	33.9573
14.6706	20.5650
14.6798	0.5856
14.6891	63.4806
14.6983	10.5949
14.7075	5.1401
14.7167	-12.9692
14.7260	-3.9956
14.7352	19.1278
14.7444	7.4752
14.7536	22.6460
14.7628	42.6956
14.7721	33.8011
14.7813	-19.1025
14.7905	21.2722
14.7997	21.2072
14.8090	44.5721
14.8182	67.4168
14.8274	39.1416
14.8366	35.5842
14.8458	6.7260
14.8551	-16.1035
14.8643	-5.7364
14.8735	14.1942
14.8827	-8.6257
14.8920	-7.0710
14.9012	-0.3110
14.9104	-8.5827
14.9196	-1.9333
14.9289	6.8483
14.9381	56.8779
14.9473	21.1938
14.9565	13.4094
14.9657	13.8470
14.9750	10.2600
14.9842	26.3302
14.9934	33.5574
15.0026	40.7446
15.0119	11.5766
15.0211	32.3767
15.0303	12.0885
15.0395	18.1745
15.0487	39.8004
15.0580	-3.8506
15.0672	1.0451
15.0764	6.8812
15.0856	-20.3966
15.0949	28.2239
15.1041	-5.3992
15.1133	-14.5486
15.1225	35.7263
15.1317	20.4039
15.1410	-18.6497
15.1502	33.7399
15.1594	10.5963
15.1686	-6.0834
15.1779	18.9562
15.1871	-2.1482
15.1963	42.4393
15.2055	8.4161
15.2148	2.5383
15.2240	6.6867
15.2332	13.8852
15.2424	-3.6155
15.2516	49.2110
15.2609	17.8280
15.2701	32.8518
15.2793	39.3714
15.2885	15.1650
15.2978	29.4169
15.3070	32.1068
15.3162	7.5633
15.3254	28.3840
15.3346	25.8016
15.3439	18.8405
15.3531	6.1689
15.3623	-7.3866
15.3715	32.3944
15.3808	7.5289
15.3900	4.4425
15.3992	24.9098
15.4084	18.1039
15.4177	24.4699
15.4269	-12.2023
15.4361	-11.6577
15.4453	22.6300
15.4545	65.6520
15.4638	-16.1670
15.4730	33.9650
15.4822	16.4497
15.4914	27.4334
15.5007	0.9841
15.5099	10.2602
15.5191	22.1318
15.5283	38.5240
15.5375	26.9426
15.5468	-12.2550
15.5560	4.4928
15.5652	31.2972
15.5744	10.2952
15.5837	2.2517
15.5929	55.6145
15.6021	17.4161
15.6113	9.1752
15.6206	41.9270
15.6298	-11.3931
15.6390	-1.0297
15.6482	39.2150
15.6574	17.5813
15.6667	33.9263
15.6759	22.0735
15.6851	28.5818
15.6943	11.7280
15.7036	17.5972
15.7128	26.8466
15.7220	-0.4898
15.7312	36.6868
15.7404	35.8197
15.7497	8.8808
15.7589	29.4159
15.7681	8.9194
15.7773	-6.7918
15.7866	34.8710
15.7958	2.3672
15.8050	15.7547
15.8142	42.9815
15.8234	17.9473
15.8327	2.5208
15.8419	29.2471
15.8511	-13.2656
15.8603	13.1196
15.8696	28.2732
15.8788	-2.2663
15.8880	10.8031
15.8972	-18.7614
15.9065	18.0596
15.9157	-15.4941
15.9249	31.6752
15.9341	-25.7889
15.9433	1.0133
15.9526	38.1281
15.9618	36.3664
15.9710	24.1427
15.9802	32.4632
15.9895	63.2174
15.9987	9.5897
16.0079	21.1780
16.0171	25.4206
16.0263	35.7439
16.0356	11.5164
16.0448	12.1527
16.0540	0.1721
16.0632	7.8503
16.0725	30.6529
16.0817	25.8866
16.0909	3.6513
16.1001	3.4833
16.1094	12.7014
16.1186	9.7039
16.1278	-3.8133
16.1370	11.5120
16.1462	24.1538
16.1555	29.5860
16.1647	2.2012
16.1739	11.6063
16.1831	44.7048
16.1924	12.0261
16.2016	31.7862
16.2108	-15.1747
16.2200	28.5960
16.2292	31.6727
16.2385	28.9276
16.2477	22.2731
16.2569	4.4266
16.2661	17.4580
16.2754	12.4124
16.2846	5.6810
16.2938	34.2806
16.3030	37.9177
16.3122	42.2919
16.3215	-19.1680
16.3307	42.5426
16.3399	17.8648
16.3491	13.1028
16.3584	56.3115
16.3676	37.5883
16.3768	30.7287
16.3860	25.1531
16.3953	-1.6454
16.4045	-8.1157
16.4137	40.6196
16.4229	35.9594
16.4321	1.0109
16.4414	24.6193
16.4506	53.5472
16.4598	8.5946
16.4690	2.1969
16.4783	10.9165
16.4875	3.0094
16.4967	44.0074
16.5059	16.0715
16.5151	23.5546
16.5244	0.6321
16.5336	13.1111
16.5428	21.4379
16.5520	5.4978
16.5613	45.7818
16.5705	31.4680
16.5797	23.5449
16.5889	27.2038
16.5982	33.8771
16.6074	11.4550
16.6166	15.5817
16.6258	26.8881
16.6350	31.2957
16.6443	28.4986
16.6535	20.9575
16.6627	-1.9322
16.6719	11.4490
16.6812	18.5467
16.6904	1.1105
16.6996	2.7824
16.7088	24.9623
16.7180	25.2720
16.7273	42.1685
16.7365	-9.5254
16.7457	9.3317
16.7549	14.5340
16.7642	61.3621
16.7734	40.2733
16.7826	43.1636
16.7918	30.0613
16.8011	32.9193
16.8103	22.6670
16.8195	39.5713
16.8287	19.9882
16.8379	32.4604
16.8472	46.4907
16.8564	54.9494
16.8656	3.5417
16.8748	-11.0094
16.8841	-26.3131
16.8933	21.6916
16.9025	46.1845
16.9117	17.8176
16.9209	14.0131
16.9302	38.9147
16.9394	11.7663
16.9486	13.0737
16.9578	12.6965
16.9671	22.3908
16.9763	63.4066
16.9855	62.0224
16.9947	33.0663
17.0039	-7.9324
17.0132	23.8350
17.0224	10.8831
17.0316	30.1112
17.0408	22.8628
17.0501	16.9696
17.0593	32.0433
17.0685	36.2979
17.0777	25.2362
17.0870	-3.5749
17.0962	-3.1765
17.1054	49.8853
17.1146	11.6398
17.1238	16.7814
17.1331	5.2342
17.1423	42.5635
17.1515	30.7261
17.1607	11.0626
17.1700	-5.4516
17.1792	18.9916
17.1884	20.8651
17.1976	44.9442
17.2068	2.3996
17.2161	44.7363
17.2253	16.9061
17.2345	24.0979
17.2437	0.4174
17.2530	8.3680
17.2622	14.9106
17.2714	29.7183
17.2806	-6.3161
17.2899	17.8742
17.2991	-20.0650
17.3083	10.0799
17.3175	12.7528
17.3267	5.5140
17.3360	19.6827
17.3452	13.5535
17.3544	5.8957
17.3636	23.4408
17.3729	3.8358
17.3821	15.3600
17.3913	40.9957
17.4005	29.7635
17.4097	55.5019
17.4190	0.2652
17.4282	14.7533
17.4374	-6.4041
17.4466	4.1126
17.4559	16.6509
17.4651	27.9016
17.4743	24.9440
17.4835	14.7631
17.4927	2.5367
17.5020	-7.8527
17.5112	-10.3538
17.5204	18.7879
17.5296	24.4577
17.5389	34.8652
17.5481	28.0031
17.5573	-13.5997
17.5665	9.5600
17.5758	2.2837
17.5850	37.4638
17.5942	9.0706
17.6034	11.8445
17.6126	25.4156
17.6219	17.0753
17.6311	-4.4213
17.6403	3.8906
17.6495	25.3080
17.6588	-12.2709
17.6680	10.8256
17.6772	21.2864
17.6864	11.9556
17.6956	-8.5607
17.7049	1.9362
17.7141	33.7169
17.7233	17.9663
17.7325	-5.4882
17.7418	11.2011
17.7510	29.9779
17.7602	2.1810
17.7694	-4.8587
17.7787	-3.2162
17.7879	15.7818
17.7971	30.2405
17.8063	4.9102
17.8155	8.6909
17.8248	-26.1666
17.8340	24.8588
17.8432	5.1201
17.8524	5.6654
17.8617	7.5619
17.8709	-9.1631
17.8801	34.3710
17.8893	8.5610
17.8985	-0.2175
17.9078	10.3262
17.9170	14.7578
17.9262	12.2381
17.9354	14.5387
17.9447	-13.3719
17.9539	19.5286
17.9631	-0.7457
17.9723	3.1945
17.9816	32.1456
17.9908	0.7466
18.0000	8.2567
18.0092	8.1692
18.0184	25.5441
18.0277	13.0016
18.0369	12.0380
18.0461	6.1306
18.0553	26.0948
18.0646	5.2522
18.0738	-5.9955
18.0830	6.7539
18.0922	-32.2269
18.1014	21.5295
18.1107	3.3026
18.1199	-5.2963
18.1291	-19.5376
18.1383	14.3896
18.1476	22.1883
18.1568	10.4260
18.1660	21.8534
18.1752	0.1032
18.1844	-22.7201
18.1937	9.1383
18.2029	28.0671
18.2121	10.5159
18.2213	29.6174
18.2306	3.0856
18.2398	20.0820
18.2490	5.4205
18.2582	-14.3018
18.2675	18.6704
18.2767	-21.7505
18.2859	-0.0366
18.2951	20.4495
18.3043	29.5238
18.3136	13.0587
18.3228	-11.7855
18.3320	17.7225
18.3412	3.8794
18.3505	9.8612
18.3597	7.2895
18.3689	32.0737
18.3781	7.8735
18.3873	50.0821
18.3966	12.2231
18.4058	-2.8497
18.4150	-21.7709
18.4242	8.2046
18.4335	-3.7585
18.4427	30.0051
18.4519	5.3212
18.4611	17.8296
18.4704	66.6866
18.4796	0.5200
18.4888	24.0264
18.4980	-13.5647
18.5072	20.8939
18.5165	6.4869
18.5257	41.7273
18.5349	4.4477
18.5441	13.6326
18.5534	5.4667
18.5626	-12.9361
18.5718	14.8635
18.5810	-5.3731
18.5902	16.1150
18.5995	24.6943
18.6087	5.5015
18.6179	22.1041
18.6271	3.5032
18.6364	3.3693
18.6456	6.8106
18.6548	13.5154
18.6640	16.4358
18.6732	22.3653
18.6825	21.2161
18.6917	5.5805
18.7009	-4.8009
18.7101	4.1984
18.7194	35.6921
18.7286	15.2045
18.7378	14.0550
18.7470	17.3033
18.7563	30.3779
18.7655	-12.2098
18.7747	13.8885
18.7839	14.6636
18.7931	7.1786
18.8024	-19.4646
18.8116	14.8574
18.8208	14.2001
18.8300	24.0158
18.8393	-2.6153
18.8485	-9.0560
18.8577	43.4080
18.8669	18.0997
18.8761	0.0568
18.8854	25.5868
18.8946	15.0610
18.9038	17.2182
18.9130	13.5020
18.9223	25.0952
18.9315	43.8131
18.9407	4.5197
18.9499	5.5926
18.9592	30.7056
18.9684	7.7433
18.9776	19.9479
18.9868	23.8870
18.9960	11.0982
19.0053	-10.4056
19.0145	-10.1061
19.0237	11.2795
19.0329	36.4951
19.0422	28.0856
19.0514	-1.6502
19.0606	9.6219
19.0698	35.6678
19.0790	12.9936
19.0883	10.6754
19.0975	22.4504
19.1067	36.1246
19.1159	40.3647
19.1252	13.5390
19.1344	9.0540
19.1436	7.6041
19.1528	10.7260
19.1621	12.0411
19.1713	18.8547
19.1805	55.4020
19.1897	-2.4805
19.1989	37.0020
19.2082	-6.4353
19.2174	20.3344
19.2266	-6.8554
19.2358	-0.6777
19.2451	31.8522
19.2543	20.5406
19.2635	-3.5183
19.2727	20.1805
19.2819	-4.3670
19.2912	-12.3336
19.3004	10.6135
19.3096	31.0604
19.3188	17.3139
19.3281	22.0021
19.3373	15.0822
19.3465	3.0805
19.3557	16.5227
19.3649	25.9459
19.3742	18.1319
19.3834	11.2356
19.3926	20.1661
19.4018	40.4183
19.4111	39.8687
19.4203	30.7153
19.4295	30.1717
19.4387	11.0734
19.4480	0.8855
19.4572	16.7963
19.4664	23.3449
19.4756	-2.9890
19.4848	26.8246
19.4941	9.6110
19.5033	23.7267
19.5125	17.3818
19.5217	8.8734
19.5310	23.7544
19.5402	27.6911
19.5494	19.1766
19.5586	43.0908
19.5678	36.5733
19.5771	41.1890
19.5863	-11.3043
19.5955	12.9201
19.6047	-12.6611
19.6140	14.4870
19.6232	15.3142
19.6324	16.5433
19.6416	9.9393
19.6509	-5.1079
19.6601	6.2940
19.6693	22.6773
19.6785	12.4889
19.6877	4.5046
19.6970	25.1652
19.7062	21.2026
19.7154	27.6906
19.7246	28.0104
19.7339	21.6366
19.7431	6.2275
19.7523	15.6201
19.7615	8.8913
19.7707	21.3315
19.7800	21.8840
19.7892	6.8049
19.7984	9.4967
19.8076	2.5103
19.8169	11.8378
19.8261	16.2372
19.8353	-12.6982
19.8445	-1.0293
19.8537	-23.0698
19.8630	33.2752
19.8722	5.5888
19.8814	22.2679
19.8906	-5.0322
19.8999	12.1348
19.9091	1.8409
19.9183	-5.5110
19.9275	25.4214
19.9368	35.7955
19.9460	6.3147
19.9552	31.4837
19.9644	49.5482
19.9736	31.0588
19.9829	24.0549
19.9921	26.1742
20.0013	7.5653
20.0105	7.3969
20.0198	13.8310
20.0290	-12.5445
20.0382	29.4149
20.0474	25.8197
20.0566	-10.3819
20.0659	22.1494
20.0751	-18.4699
20.0843	10.8019
20.0935	-4.1224
20.1028	32.7284
20.1120	12.7998
20.1212	17.5386
20.1304	25.9767
20.1397	19.6664
20.1489	11.4797
20.1581	10.8971
20.1673	6.4281
20.1765	10.8498
20.1858	-4.3526
20.1950	21.0850
20.2042	34.1043
20.2134	39.7713
20.2227	15.6196
20.2319	19.4890
20.2411	6.1989
20.2503	15.6658
20.2595	25.3527
20.2688	27.1444
20.2780	42.8152
20.2872	17.3908
20.2964	31.8573
20.3057	22.8374
20.3149	24.8796
20.3241	-12.9084
20.3333	-10.0980
20.3426	-13.9205
20.3518	13.8201
20.3610	39.9904
20.3702	-1.9614
20.3794	26.3276
20.3887	30.8160
20.3979	28.0806
20.4071	1.7813
20.4163	18.5040
20.4256	3.7617
20.4348	1.3312
20.4440	1.9609
20.4532	17.1394
20.4624	22.5274
20.4717	53.3986
20.4809	13.0770
20.4901	-4.8185
20.4993	14.7388
20.5086	4.5560
20.5178	32.1337
20.5270	3.1644
20.5362	21.2063
20.5454	28.2532
20.5547	54.8370
20.5639	12.4270
20.5731	26.9534
20.5823	-7.3698
20.5916	11.5218
20.6008	-5.5835
20.6100	50.8222
20.6192	47.0486
20.6285	35.4637
20.6377	12.0300
20.6469	16.5687
20.6561	23.9086
20.6653	19.1264
20.6746	-0.9688
20.6838	-1.3328
20.6930	23.4674
20.7022	12.0663
20.7115	25.8571
20.7207	27.7671
20.7299	24.8951
20.7391	13.9655
20.7483	18.2033
20.7576	-6.0544
20.7668	19.2859
20.7760	22.6893
20.7852	-7.0388
20.7945	23.6909
20.8037	24.9148
20.8129	42.6276
20.8221	23.4088
20.8314	14.7600
20.8406	-1.4267
20.8498	26.3376
20.8590	14.8766
20.8682	24.5415
20.8775	21.9469
20.8867	48.3136
20.8959	21.3132
20.9051	53.3819
20.9144	48.7659
20.9236	49.6742
20.9328	44.5018
20.9420	14.4241
20.9512	18.0753
20.9605	45.1703
20.9697	17.4216
20.9789	-13.9103
20.9881	-7.8500
20.9974	44.4292
21.0066	6.6193
21.0158	-0.4683
21.0250	27.9217
21.0342	8.5541
21.0435	-9.3924
21.0527	-2.3612
21.0619	14.7576
21.0711	21.9797
21.0804	46.0763
21.0896	18.3772
21.0988	34.4443
21.1080	50.5580
21.1173	27.8652
21.1265	19.2365
21.1357	18.1386
21.1449	54.7305
21.1541	11.0118
21.1634	19.7247
21.1726	19.2587
21.1818	31.7159
21.1910	22.4739
21.2003	54.8261
21.2095	44.3859
21.2187	48.0692
21.2279	88.2136
21.2371	115.3357
21.2464	145.6837
21.2556	219.1662
21.2648	329.9010
21.2740	468.2584
21.2833	649.9963
21.2925	758.6937
21.3017	837.8746
21.3109	649.1204
21.3202	435.2764
21.3294	286.5638
21.3386	148.4942
21.3478	104.3065
21.3570	88.9135
21.3663	73.0306
21.3755	49.2369
21.3847	42.9427
21.3939	69.9717
21.4032	82.8685
21.4124	59.2027
21.4216	32.9106
21.4308	-51.1687
21.4400	-2.1377
21.4493	6.5108
21.4585	-9.6904
21.4677	-9.2364
21.4769	-15.7983
21.4862	10.2219
21.4954	20.0721
21.5046	34.1947
21.5138	28.9291
21.5230	22.6616
21.5323	-5.1278
21.5415	6.9401
21.5507	9.7355
21.5599	51.3185
21.5692	50.6587
21.5784	65.7841
21.5876	33.9437
21.5968	31.6798
21.6061	51.0332
21.6153	45.1493
21.6245	26.1036
21.6337	30.5881
21.6429	21.5185
21.6522	29.4325
21.6614	3.1334
21.6706	10.8432
21.6798	14.0248
21.6891	7.1574
21.6983	-4.0783
21.7075	-6.1704
21.7167	26.0686
21.7259	18.9698
21.7352	14.8977
21.7444	18.4876
21.7536	10.6251
21.7628	11.4818
21.7721	14.5116
21.7813	18.6206
21.7905	42.3032
21.7997	33.8267
21.8090	34.3309
21.8182	28.7410
21.8274	21.4138
21.8366	25.2431
21.8458	51.1780
21.8551	16.5186
21.8643	30.1343
21.8735	42.9415
21.8827	29.3286
21.8920	34.7752
21.9012	21.7130
21.9104	25.8752
21.9196	-3.4525
21.9288	8.2627
21.9381	17.0857
21.9473	16.3753
21.9565	44.5612
21.9657	24.3501
21.9750	13.9008
21.9842	9.9021
21.9934	7.3539
22.0026	36.7508
22.0119	31.6148
22.0211	8.8929
22.0303	37.4262
22.0395	14.9687
22.0487	20.3884
22.0580	37.8508
22.0672	39.6344
22.0764	39.2750
22.0856	27.4789
22.0949	3.5562
22.1041	6.5674
22.1133	27.4302
22.1225	15.1060
22.1317	-1.9210
22.1410	33.1248
22.1502	36.0006
22.1594	13.6881
22.1686	23.8681
22.1779	33.9711
22.1871	-0.8771
22.1963	40.1667
22.2055	3.6330
22.2147	0.7221
22.2240	6.5728
22.2332	37.0833
22.2424	6.7390
22.2516	0.5317
22.2609	28.3632
22.2701	22.0277
22.2793	-8.6841
22.2885	24.4886
22.2978	41.0138
22.3070	23.9601
22.3162	13.9550
22.3254	32.3387
22.3346	5.8465
22.3439	19.8082
22.3531	16.1884
22.3623	6.3622
22.3715	-0.7882
22.3808	27.5843
22.3900	22.9609
22.3992	14.7496
22.4084	26.4036
22.4176	42.3051
22.4269	-3.5678
22.4361	-0.6398
22.4453	34.2035
22.4545	-6.2911
22.4638	7.3496
22.4730	29.2505
22.4822	6.6885
22.4914	20.9595
22.5007	29.6610
22.5099	12.7970
22.5191	-7.1366
22.5283	5.3961
22.5375	9.3179
22.5468	10.3043
22.5560	5.6754
22.5652	21.0636
22.5744	45.1420
22.5837	6.1126
22.5929	59.0737
22.6021	10.0084
22.6113	24.6568
22.6205	50.7514
22.6298	-0.1639
22.6390	29.1635
22.6482	18.6315
22.6574	44.9638
22.6667	33.8921
22.6759	6.0040
22.6851	30.5902
22.6943	23.7998
22.7035	-8.8424
22.7128	-9.7781
22.7220	-7.3902
22.7312	-7.3593
22.7404	18.3633
22.7497	29.7309
22.7589	-23.0633
22.7681	29.0249
22.7773	29.0156
22.7866	-2.6136
22.7958	-2.7337
22.8050	24.7276
22.8142	11.0802
22.8234	5.7190
22.8327	49.9331
22.8419	11.1216
22.8511	41.0187
22.8603	-9.9820
22.8696	10.9126
22.8788	17.5375
22.8880	29.1059
22.8972	26.5313
22.9064	26.2838
22.9157	28.8790
22.9249	13.4401
22.9341	3.8132
22.9433	24.2847
22.9526	12.8711
22.9618	-9.7513
22.9710	-18.5561
22.9802	15.3829
22.9895	0.7467
22.9987	5.4247
23.0079	24.0033
23.0171	21.2394
23.0263	21.9661
23.0356	14.6989
23.0448	0.0417
23.0540	33.0383
23.0632	8.5806
23.0725	-3.9765
23.0817	-3.4971
23.0909	24.1396
23.1001	4.9066
23.1093	28.0429
23.1186	-0.1228
23.1278	2.3754
23.1370	24.7100
23.1462	24.4179
23.1555	33.5784
23.1647	3.6775
23.1739	40.9951
23.1831	-2.9450
23.1924	15.2199
23.2016	13.9394
23.2108	24.0954
23.2200	15.0043
23.2292	20.8969
23.2385	20.1628
23.2477	36.1824
23.2569	21.7884
23.2661	35.1637
23.2754	26.7425
23.2846	24.5044
23.2938	22.7361
23.3030	21.8229
23.3122	-4.2826
23.3215	29.9365
23.3307	16.7118
23.3399	4.2125
23.3491	29.5550
23.3584	15.8591
23.3676	-0.8284
23.3768	2.0138
23.3860	-5.2105
23.3952	8.9347
23.4045	-21.3134
23.4137	-4.2988
23.4229	5.2430
23.4321	-3.8077
23.4414	-18.1868
23.4506	12.5034
23.4598	9.5909
23.4690	2.0739
23.4783	7.4321
23.4875	3.6492
23.4967	-28.8638
23.5059	0.5939
23.5151	-6.5884
23.5244	14.2205
23.5336	21.0537
23.5428	6.6628
23.5520	38.5119
23.5613	36.6071
23.5705	20.7104
23.5797	-8.7290
23.5889	23.2747
23.5981	11.6850
23.6074	3.0062
23.6166	27.2322
23.6258	-1.7231
23.6350	26.4886
23.6443	23.2563
23.6535	25.1987
23.6627	26.7876
23.6719	16.8568
23.6812	5.0651
23.6904	21.4418
23.6996	-3.8496
23.7088	-11.6643
23.7180	22.3587
23.7273	16.4376
23.7365	2.1444
23.7457	14.4534
23.7549	12.9559
23.7642	-5.5140
23.7734	17.8884
23.7826	2.1434
23.7918	20.0481
23.8010	-6.8825
23.8103	15.7788
23.8195	-5.0667
23.8287	-3.6140
23.8379	20.1349
23.8472	9.6957
23.8564	7.9201
23.8656	28.3250
23.8748	6.1399
23.8840	58.5300
23.8933	11.7721
23.9025	-0.8662
23.9117	-3.5581
23.9209	14.3050
23.9302	15.2314
23.9394	3.0534
23.9486	1.4784
23.9578	-11.4447
23.9671	24.2761
23.9763	11.9887
23.9855	7.4912
23.9947	21.1277
24.0039	16.6638
24.0132	-4.0062
24.0224	23.9472
24.0316	-17.9669
24.0408	13.6232
24.0501	20.4622
24.0593	7.9447
24.0685	-3.2598
24.0777	10.7612
24.0869	25.4781
24.0962	4.6093
24.1054	-1.2394
24.1146	16.1437
24.1238	37.1080
24.1331	17.0514
24.1423	-2.4563
24.1515	-23.0471
24.1607	6.8752
24.1700	4.3133
24.1792	18.0668
24.1884	10.3923
24.1976	-20.0304
24.2068	1.1145
24.2161	14.7158
24.2253	25.0592
24.2345	-3.2177
24.2437	7.5507
24.2530	13.7949
24.2622	10.7405
24.2714	0.4493
24.2806	-16.7942
24.2898	14.9465
24.2991	18.1683
24.3083	16.3333
24.3175	9.2496
24.3267	22.1979
24.3360	3.9939
24.3452	37.9571
24.3544	38.3395
24.3636	14.1766
24.3729	31.8736
24.3821	22.4596
24.3913	26.7992
24.4005	21.4145
24.4097	17.2821
24.4190	15.8764
24.4282	36.9259
24.4374	7.2944
24.4466	24.2619
24.4559	-0.2372
24.4651	4.8385
24.4743	6.3780
24.4835	21.3736
24.4927	28.8934
24.5020	4.2032
24.5112	20.5867
24.5204	5.5293
24.5296	-0.8635
24.5389	35.6575
24.5481	11.2042
24.5573	4.4658
24.5665	-1.4343
24.5757	1.0990
24.5850	9.0863
24.5942	-1.8987
24.6034	13.5136
24.6126	16.2904
24.6219	5.0652
24.6311	-10.3122
24.6403	32.8683
24.6495	23.1710
24.6588	7.6290
24.6680	8.0691
24.6772	31.7416
24.6864	11.8948
24.6956	7.6363
24.7049	29.1475
24.7141	9.2940
24.7233	10.6300
24.7325	43.7342
24.7418	29.7030
24.7510	-4.8533
24.7602	23.3880
24.7694	21.2781
24.7786	28.1588
24.7879	30.6778
24.7971	-0.3448
24.8063	24.2261
24.8155	32.4810
24.8248	12.8089
24.8340	9.2154
24.8432	15.8707
24.8524	11.0659
24.8617	29.5590
24.8709	51.8815
24.8801	-3.0292
24.8893	13.8096
24.8985	34.1128
24.9078	24.4981
24.9170	9.1220
24.9262	19.0392
24.9354	18.7658
24.9447	23.6510
24.9539	8.9806
24.9631	37.6732
24.9723	19.0992
24.9815	52.3047
24.9908	58.8805
25.0000	115.1981
25.0092	133.5974
25.0184	213.6780
25.0277	337.0280
25.0369	376.4417
25.0461	345.4577
25.0553	224.5147
25.0645	162.5341
25.0738	123.3145
25.0830	90.4485
25.0922	21.7039
25.1014	27.0214
25.1107	16.4612
25.1199	25.8204
25.1291	33.9851
25.1383	28.2180
25.1476	40.5630
25.1568	33.0376
25.1660	59.8609
25.1752	40.2020
25.1844	27.2893
25.1937	-31.2813
25.2029	-20.1279
25.2121	32.1511
25.2213	3.5873
25.2306	40.1220
25.2398	7.3969
25.2490	19.4353
25.2582	13.8574
25.2674	12.4770
25.2767	14.9347
25.2859	4.5541
25.2951	8.2005
25.3043	23.3517
25.3136	0.1383
25.3228	7.9192
25.3320	45.9221
25.3412	6.0676
25.3505	34.0701
25.3597	44.4419
25.3689	29.0304
25.3781	41.1336
25.3873	29.0090
25.3966	47.3305
25.4058	19.6893
25.4150	50.0188
25.4242	29.3041
25.4335	0.9104
25.4427	21.9830
25.4519	31.2994
25.4611	11.0976
25.4703	23.6596
25.4796	12.9650
25.4888	0.1773
25.4980	17.4325
25.5072	-2.7429
25.5165	13.1485
25.5257	-0.4302
25.5349	11.3805
25.5441	4.2416
25.5534	-14.4977
25.5626	25.4785
25.5718	28.6138
25.5810	1.9815
25.5902	39.0462
25.5995	12.6707
25.6087	23.3278
25.6179	24.9553
25.6271	-2.2259
25.6364	27.0038
25.6456	25.2612
25.6548	44.5988
25.6640	38.4235
25.6732	20.6611
25.6825	32.0471
25.6917	17.4089
25.7009	25.5747
25.7101	23.5829
25.7194	12.9247
25.7286	6.3598
25.7378	30.6687
25.7470	-4.8274
25.7562	27.0033
25.7655	19.0258
25.7747	20.7688
25.7839	26.9260
25.7931	11.9896
25.8024	13.2183
25.8116	13.6632
25.8208	9.2095
25.8300	39.2665
25.8393	24.3730
25.8485	27.8504
25.8577	28.3027
25.8669	3.4845
25.8761	13.0535
25.8854	-5.4319
25.8946	-0.0466
25.9038	18.4275
25.9130	25.4925
25.9223	-3.2528
25.9315	15.7355
25.9407	41.0431
25.9499	11.2696
25.9591	31.2793
25.9684	18.9114
25.9776	35.5210
25.9868	-6.5517
25.9960	12.5371
26.0053	-14.0463
26.0145	-7.7023
26.0237	27.3785
26.0329	21.0190
26.0422	32.4259
26.0514	20.9361
26.0606	-1.4786
26.0698	22.3356
26.0790	33.3610
26.0883	16.9608
26.0975	7.2935
26.1067	25.5090
26.1159	16.3808
26.1252	12.2594
26.1344	37.7192
26.1436	27.7478
26.1528	41.6521
26.1620	39.8761
26.1713	20.5052
26.1805	23.2072
26.1897	43.7274
26.1989	17.3295
26.2082	6.6539
26.2174	16.6424
26.2266	3.8286
26.2358	45.7642
26.2450	18.3251
26.2543	36.4730
26.2635	20.2023
26.2727	22.9092
26.2819	23.9970
26.2912	-2.2351
26.3004	-16.1565
26.3096	3.1651
26.3188	25.3493
26.3281	6.7843
26.3373	36.4791
26.3465	10.3831
26.3557	11.0977
26.3649	16.1049
26.3742	28.1150
26.3834	16.6615
26.3926	3.5550
26.4018	16.2949
26.4111	22.9795
26.4203	25.9082
26.4295	11.4856
26.4387	-4.6087
26.4479	-5.1249
26.4572	30.0622
26.4664	35.5785
26.4756	11.1996
26.4848	27.6600
26.4941	17.6373
26.5033	22.2049
26.5125	10.5777
26.5217	34.2072
26.5310	12.1866
26.5402	10.5931
26.5494	11.4406
26.5586	30.9689
26.5678	20.5958
26.5771	-6.2021
26.5863	6.2646
26.5955	-1.4318
26.6047	3.7498
26.6140	50.8661
26.6232	13.1163
26.6324	25.0506
26.6416	1.5522
26.6508	32.3320
26.6601	-19.0518
26.6693	7.9403
26.6785	-8.5596
26.6877	46.0538
26.6970	29.0069
26.7062	-10.6770
26.7154	40.2777
26.7246	13.3104
26.7339	5.4003
26.7431	30.7321
26.7523	42.8209
26.7615	45.9995
26.7707	11.5155
26.7800	9.3567
26.7892	12.6373
26.7984	12.2665
26.8076	26.3193
26.8169	9.9377
26.8261	33.9079
26.8353	34.3471
26.8445	33.1274
26.8537	-5.0308
26.8630	28.1652
26.8722	15.6040
26.8814	14.0570
26.8906	25.9452
26.8999	21.4433
26.9091	-13.3924
26.9183	16.0371
26.9275	0.5852
26.9367	16.7632
26.9460	31.4217
26.9552	17.8529
26.9644	10.2361
26.9736	20.4700
26.9829	22.8447
26.9921	-4.2998
27.0013	2.4204
27.0105	14.0613
27.0198	12.9021
27.0290	11.4304
27.0382	20.3169
27.0474	27.7223
27.0566	-14.0470
27.0659	6.4447
27.0751	24.0637
27.0843	27.5904
27.0935	20.0741
27.1028	12.9265
27.1120	1.5337
27.1212	-12.9395
27.1304	16.7782
27.1396	4.7675
27.1489	-1.6229
27.1581	30.2714
27.1673	0.4936
27.1765	32.7188
27.1858	13.8587
27.1950	8.4785
27.2042	18.2974
27.2134	4.4649
27.2227	15.2121
27.2319	10.5419
27.2411	1.5606
27.2503	12.0306
27.2595	19.0999
27.2688	23.5751
27.2780	31.8946
27.2872	10.8029
27.2964	14.7811
27.3057	13.8445
27.3149	19.3237
27.3241	-6.7907
27.3333	14.1699
27.3425	-9.9642
27.3518	13.0630
27.3610	17.8132
27.3702	-3.7901
27.3794	34.8003
27.3887	23.7347
27.3979	0.4407
27.4071	35.3772
27.4163	11.1451
27.4255	2.1805
27.4348	9.5848
27.4440	-20.1871
27.4532	15.7324
27.4624	11.7215
27.4717	21.4954
27.4809	33.5153
27.4901	17.2729
27.4993	12.1003
27.5086	-1.1805
27.5178	20.9337
27.5270	17.8722
27.5362	11.6594
27.5454	11.4509
27.5547	-6.7359
27.5639	30.8522
27.5731	15.7231
27.5823	14.0562
27.5916	27.9764
27.6008	14.0001
27.6100	44.3142
27.6192	10.9382
27.6284	-2.2738
27.6377	12.3141
27.6469	18.6943
27.6561	-19.6226
27.6653	26.0051
27.6746	17.9627
27.6838	11.9201
27.6930	-8.6817
27.7022	25.7019
27.7115	4.9926
27.7207	33.1831
27.7299	-2.6212
27.7391	-0.6022
27.7483	13.1352
27.7576	13.6470
27.7668	1.2157
27.7760	15.2792
27.7852	-16.0292
27.7945	-5.7550
27.8037	20.6006
27.8129	-11.6098
27.8221	19.3944
27.8313	-4.4279
27.8406	-1.0100
27.8498	6.4558
27.8590	52.8817
27.8682	17.1420
27.8775	25.7946
27.8867	-5.1472
27.8959	-12.7596
27.9051	11.5747
27.9144	38.9616
27.9236	15.9530
27.9328	25.4135
27.9420	-12.0036
27.9512	34.3377
27.9605	21.4030
27.9697	-6.9552
27.9789	20.4449
27.9881	24.1690
27.9974	6.1752
28.0066	17.8748
28.0158	23.3988
28.0250	10.6093
28.0342	-8.8842
28.0435	14.0934
28.0527	24.5491
28.0619	15.9696
28.0711	44.4537
28.0804	5.8431
28.0896	8.2017
28.0988	16.5619
28.1080	21.9709
28.1172	28.0565
28.1265	-7.3473
28.1357	-17.7443
28.1449	29.5489
28.1541	5.1404
28.1634	15.1590
28.1726	-9.7762
28.1818	5.1747
28.1910	15.6731
28.2003	25.8160
28.2095	49.5125
28.2187	27.5072
28.2279	6.4046
28.2371	10.6694
28.2464	17.5019
28.2556	8.5298
28.2648	-5.2411
28.2740	18.8740
28.2833	7.1147
28.2925	-3.2541
28.3017	19.1976
28.3109	27.6293
28.3201	-20.2287
28.3294	31.2911
28.3386	37.8366
28.3478	34.4623
28.3570	1.3243
28.3663	19.1279
28.3755	6.2794
28.3847	7.0807
28.3939	-0.0358
28.4032	25.1807
28.4124	35.9427
28.4216	26.2383
28.4308	14.8917
28.4400	-3.6719
28.4493	26.5702
28.4585	13.3742
28.4677	33.6258
28.4769	11.8197
28.4862	-17.1697
28.4954	40.8267
28.5046	5.9052
28.5138	29.7777
28.5230	5.7139
28.5323	-7.0767
28.5415	2.1513
28.5507	25.5469
28.5599	11.1786
28.5692	16.6932
28.5784	8.4262
28.5876	-16.0608
28.5968	0.4901
28.6060	32.1160
28.6153	2.2092
28.6245	13.3553
28.6337	10.7666
28.6429	2.7292
28.6522	28.1873
28.6614	11.3496
28.6706	2.0042
28.6798	-14.6002
28.6891	9.2686
28.6983	20.8900
28.7075	58.8608
28.7167	4.5271
28.7259	-14.2354
28.7352	20.5894
28.7444	11.1750
28.7536	24.3690
28.7628	30.4030
28.7721	18.2818
28.7813	3.7781
28.7905	5.6713
28.7997	16.6329
28.8089	-5.2501
28.8182	26.2831
28.8274	-0.1792
28.8366	16.1102
28.8458	25.5429
28.8551	40.0779
28.8643	51.5828
28.8735	28.5015
28.8827	-14.3380
28.8920	18.9480
28.9012	22.5672
28.9104	35.8925
28.9196	18.0367
28.9288	22.4488
28.9381	3.5479
28.9473	29.1527
28.9565	24.0740
28.9657	33.5107
28.9750	21.4308
28.9842	5.4745
28.9934	20.9614
29.0026	26.1754
29.0118	-0.1066
29.0211	12.1535
29.0303	5.8250
29.0395	0.6551
29.0487	0.2650
29.0580	20.1623
29.0672	-19.8184
29.0764	-0.9154
29.0856	19.3059
29.0949	23.4058
29.1041	18.5075
29.1133	20.4496
29.1225	11.5386
29.1317	10.9935
29.1410	10.3142
29.1502	18.9421
29.1594	10.1214
29.1686	10.1773
29.1779	41.4355
29.1871	-7.3397
29.1963	30.2018
29.2055	-6.7769
29.2147	35.1250
29.2240	9.4965
29.2332	-7.5494
29.2424	37.1167
29.2516	30.0166
29.2609	38.3660
29.2701	13.4062
29.2793	24.6542
29.2885	2.5039
29.2977	13.2116
29.3070	23.7401
29.3162	16.1194
29.3254	11.3976
29.3346	7.1411
29.3439	36.6212
29.3531	14.8089
29.3623	24.7127
29.3715	21.5891
29.3808	27.6993
29.3900	3.8116
29.3992	30.8530
29.4084	1.9470
29.4176	15.3106
29.4269	19.2671
29.4361	-3.0709
29.4453	13.1284
29.4545	12.9297
29.4638	25.4927
29.4730	1.7297
29.4822	9.5329
29.4914	-13.4866
29.5006	33.9032
29.5099	25.2656
29.5191	25.0023
29.5283	20.6073
29.5375	-6.4014
29.5468	32.7629
29.5560	5.0330
29.5652	23.4799
29.5744	12.1668
29.5837	20.6496
29.5929	41.3404
29.6021	-2.9431
29.6113	6.6138
29.6205	31.9251
29.6298	20.0089
29.6390	22.6752
29.6482	23.7975
29.6574	-3.8899
29.6667	9.7553
29.6759	40.7245
29.6851	31.1373
29.6943	5.6906
29.7035	6.3360
29.7128	33.7720
29.7220	37.2464
29.7312	19.8081
29.7404	29.7689
29.7497	46.1546
29.7589	1.3328
29.7681	25.3135
29.7773	-7.1579
29.7865	17.2443
29.7958	11.5783
29.8050	46.4513
29.8142	35.6252
29.8234	10.5074
29.8327	16.5949
29.8419	29.4177
29.8511	14.9565
29.8603	1.4488
29.8696	40.9705
29.8788	40.7763
29.8880	41.6812
29.8972	-4.0942
29.9064	12.8749
29.9157	8.0099
29.9249	19.0572
29.9341	1.1180
29.9433	59.5321
29.9526	10.3747
29.9618	41.1914
29.9710	20.3407
29.9802	30.2318
29.9894	12.0418
29.9987	16.4722
30.0079	17.0141
30.0171	16.3839
30.0263	8.2284
30.0356	17.1497
30.0448	35.0160
30.0540	14.6427
30.0632	-10.0875
30.0725	-18.5351
30.0817	30.7402
30.0909	34.4178
30.1001	11.9956
30.1093	22.1261
30.1186	27.7475
30.1278	16.2858
30.1370	25.2918
30.1462	31.2266
30.1555	5.6410
30.1647	5.5447
30.1739	28.7921
30.1831	25.0704
30.1923	20.5129
30.2016	39.7234
30.2108	40.1871
30.2200	19.0905
30.2292	6.9364
30.2385	45.7711
30.2477	8.6562
30.2569	38.2696
30.2661	16.1920
30.2754	39.7801
30.2846	30.1704
30.2938	25.4590
30.3030	20.0859
30.3122	22.7852
30.3215	11.5649
30.3307	28.1642
30.3399	27.9697
30.3491	23.0955
30.3584	27.4343
30.3676	16.6706
30.3768	15.7359
30.3860	34.3665
30.3952	16.4193
30.4045	19.7189
30.4137	15.9861
30.4229	20.2623
30.4321	14.9762
30.4414	15.6273
30.4506	46.2574
30.4598	-9.0985
30.4690	29.0792
30.4782	14.1714
30.4875	17.6489
30.4967	19.6510
30.5059	23.6561
30.5151	21.4071
30.5244	3.3134
30.5336	-7.2222
30.5428	4.3186
30.5520	36.6452
30.5613	21.9890
30.5705	31.6096
30.5797	13.9602
30.5889	6.6746
30.5981	5.9745
30.6074	-12.4984
30.6166	9.9781
30.6258	1.9015
30.6350	6.3443
30.6443	8.2159
30.6535	13.7697
30.6627	-7.3080
30.6719	-7.7362
30.6811	17.8534
30.6904	-11.7084
30.6996	3.8053
30.7088	19.7718
30.7180	36.8626
30.7273	49.7368
30.7365	17.0222
30.7457	-4.1115
30.7549	23.5189
30.7642	-12.1170
30.7734	26.2757
30.7826	53.3884
30.7918	37.5513
30.8010	17.9004
30.8103	4.1344
30.8195	24.4949
30.8287	53.7654
30.8379	39.0463
30.8472	46.5179
30.8564	24.9170
30.8656	25.0966
30.8748	28.7343
30.8840	20.0261
30.8933	17.1939
30.9025	0.0190
30.9117	26.2275
30.9209	-26.3536
30.9302	22.9000
30.9394	20.2723
30.9486	36.7954
30.9578	3.6626
30.9670	-4.6852
30.9763	-11.6229
30.9855	22.7799
30.9947	15.6456
31.0039	5.5635
31.0132	4.1691
31.0224	18.6109
31.0316	-5.0708
31.0408	39.9738
31.0501	10.9080
31.0593	3.3616
31.0685	14.0146
31.0777	3.6237
31.0869	30.6401
31.0962	18.3374
31.1054	40.7708
31.1146	41.2387
31.1238	13.9945
31.1331	26.4023
31.1423	12.8724
31.1515	17.0445
31.1607	22.0466
31.1699	28.9616
31.1792	11.2465
31.1884	10.0038
31.1976	11.3413
31.2068	17.8773
31.2161	2.3085
31.2253	38.5550
31.2345	14.7798
31.2437	31.9346
31.2530	45.6552
31.2622	-2.5426
31.2714	9.7631
31.2806	-3.8560
31.2898	35.7577
31.2991	-1.5252
31.3083	7.2422
31.3175	13.4554
31.3267	16.0604
31.3360	25.3042
31.3452	-5.7926
31.3544	11.6799
31.3636	15.6583
31.3728	55.2305
31.3821	25.8192
31.3913	4.1164
31.4005	10.9569
31.4097	35.6542
31.4190	-5.3502
31.4282	26.3111
31.4374	-4.9718
31.4466	3.1852
31.4559	50.3739
31.4651	3.2034
31.4743	28.4893
31.4835	-1.0126
31.4927	20.5766
31.5020	28.5403
31.5112	13.3820
31.5204	2.9718
31.5296	11.6442
31.5389	15.4319
31.5481	29.9344
31.5573	33.3246
31.5665	-8.4983
31.5757	22.3736
31.5850	-5.3856
31.5942	24.9706
31.6034	5.8644
31.6126	43.8243
31.6219	14.2469
31.6311	28.1565
31.6403	21.1660
31.6495	22.8822
31.6587	-7.5528
31.6680	22.2016
31.6772	9.9439
31.6864	1.0123
31.6956	-11.2350
31.7049	22.0122
31.7141	29.6993
31.7233	10.4473
31.7325	28.0584
31.7418	2.0918
31.7510	23.1474
31.7602	38.5590
31.7694	19.1635
31.7786	12.6088
31.7879	6.0617
31.7971	27.0423
31.8063	-13.0451
31.8155	7.3087
31.8248	5.6117
31.8340	8.0842
31.8432	24.5622
31.8524	-4.1611
31.8616	-10.5715
31.8709	9.9074
31.8801	21.9219
31.8893	38.5005
31.8985	35.6712
31.9078	17.5176
31.9170	8.4230
31.9262	35.2722
31.9354	18.3277
31.9447	2.5791
31.9539	5.9116
31.9631	0.9535
31.9723	7.7491
31.9815	22.0519
31.9908	24.1995
32.0000	31.7193
32.0092	47.1727
32.0184	33.4311
32.0277	30.1460
32.0369	6.0503
32.0461	27.4275
32.0553	40.6491
32.0645	15.6235
32.0738	-2.2329
32.0830	34.6529
32.0922	9.5308
32.1014	10.9369
32.1107	19.7140
32.1199	26.2812
32.1291	44.8421
32.1383	28.0295
32.1475	35.3181
32.1568	27.6971
32.1660	1.4691
32.1752	27.4232
32.1844	3.1550
32.1937	21.9481
32.2029	13.5237
32.2121	-8.7148
32.2213	8.9333
32.2306	8.0400
32.2398	-6.3966
32.2490	-1.2709
32.2582	14.9557
32.2674	52.0361
32.2767	44.2843
32.2859	17.9498
32.2951	35.4940
32.3043	-5.4964
32.3136	30.6237
32.3228	-1.7088
32.3320	-7.6297
32.3412	-0.3585
32.3504	9.6259
32.3597	22.5829
32.3689	12.1966
32.3781	30.4006
32.3873	10.8079
32.3966	26.7224
32.4058	4.0614
32.4150	37.3488
32.4242	32.3254
32.4335	34.7527
32.4427	9.3365
32.4519	39.3970
32.4611	2.7098
32.4703	-22.9258
32.4796	-1.7582
32.4888	15.0551
32.4980	28.2206
32.5072	17.8146
32.5165	22.4707
32.5257	41.7153
32.5349	40.3042
32.5441	57.4415
32.5533	35.2153
32.5626	31.0073
32.5718	9.5861
32.5810	19.8913
32.5902	10.6459
32.5995	8.9068
32.6087	6.8222
32.6179	7.1835
32.6271	41.1755
32.6363	34.9028
32.6456	26.9504
32.6548	8.1753
32.6640	26.7855
32.6732	81.9625
32.6825	33.6724
32.6917	12.4974
32.7009	15.0295
32.7101	4.5630
32.7194	-0.3170
32.7286	-1.1370
32.7378	39.9650
32.7470	15.6044
32.7562	28.1824
32.7655	6.6677
32.7747	0.6993
32.7839	15.9023
32.7931	5.4058
32.8024	61.2813
32.8116	42.3104
32.8208	33.0376
32.8300	-8.8368
32.8392	19.2825
32.8485	25.2391
32.8577	20.5055
32.8669	28.6485
32.8761	-7.2606
32.8854	-5.9673
32.8946	24.1037
32.9038	-0.5908
32.9130	-4.7161
32.9223	23.8916
32.9315	17.4515
32.9407	-16.4313
32.9499	27.1124
32.9591	7.4612
32.9684	26.6054
32.9776	59.3577
32.9868	21.9401
32.9960	38.7470
33.0053	21.9318
33.0145	-13.2774
33.0237	35.9911
33.0329	37.5769
33.0421	43.6806
33.0514	22.0819
33.0606	40.6233
33.0698	41.6633
33.0790	50.7825
33.0883	61.4608
33.0975	55.1946
33.1067	76.2964
33.1159	66.4002
33.1252	43.5467
33.1344	65.1114
33.1436	50.0153
33.1528	54.0392
33.1620	44.6008
33.1713	15.7013
33.1805	-17.8798
33.1897	45.0220
33.1989	11.6356
33.2082	33.6299
33.2174	41.6950
33.2266	26.8761
33.2358	28.4242
33.2450	18.0885
33.2543	8.7847
33.2635	19.6637
33.2727	23.5037
33.2819	25.2917
33.2912	32.2871
33.3004	23.6779
33.3096	-4.1856
33.3188	7.5078
33.3280	49.6654
33.3373	-15.1444
33.3465	-3.1891
33.3557	11.3707
33.3649	27.6040
33.3742	-4.6776
33.3834	51.1566
33.3926	18.9126
33.4018	35.3358
33.4111	5.7061
33.4203	-1.1110
33.4295	10.5187
33.4387	17.2931
33.4479	41.9234
33.4572	33.8348
33.4664	29.9866
33.4756	19.5550
33.4848	12.2628
33.4941	29.0647
33.5033	6.7319
33.5125	9.0408
33.5217	30.8814
33.5309	31.4882
33.5402	8.1454
33.5494	24.6237
33.5586	13.1287
33.5678	29.5710
33.5771	11.9769
33.5863	26.6780
33.5955	-20.8696
33.6047	16.2701
33.6140	32.4028
33.6232	16.2137
33.6324	42.7082
33.6416	28.0398
33.6508	35.0290
33.6601	-9.4045
33.6693	19.8379
33.6785	19.1408
33.6877	11.7917
33.6970	32.8651
33.7062	11.0003
33.7154	9.6027
33.7246	37.9788
33.7338	36.0214
33.7431	18.0201
33.7523	9.8305
33.7615	11.4712
33.7707	12.6326
33.7800	-3.9040
33.7892	24.7768
33.7984	27.2901
33.8076	31.0512
33.8168	3.8407
33.8261	3.6526
33.8353	-32.3172
33.8445	-2.6468
33.8537	24.7601
33.8630	23.2174
33.8722	27.7933
33.8814	12.1400
33.8906	11.3874
33.8999	22.7055
33.9091	35.3358
33.9183	29.9555
33.9275	-9.5494
33.9367	15.6848
33.9460	14.4056
33.9552	36.4479
33.9644	21.6478
33.9736	38.9652
33.9829	40.0791
33.9921	29.4361
34.0013	11.4773
34.0105	26.2188
34.0197	25.8395
34.0290	41.4444
34.0382	22.1656
34.0474	36.6900
34.0566	24.1823
34.0659	30.4199
34.0751	2.9191
34.0843	0.8340
34.0935	27.9350
34.1028	22.8197
34.1120	9.2286
34.1212	10.7883
34.1304	1.8479
34.1396	36.3155
34.1489	28.7066
34.1581	21.7791
34.1673	16.8395
34.1765	10.5934
34.1858	12.3830
34.1950	3.1021
34.2042	15.5712
34.2134	26.3145
34.2226	23.1682
34.2319	38.4267
34.2411	9.7758
34.2503	16.4017
34.2595	22.4495
34.2688	36.5475
34.2780	1.7648
34.2872	36.0357
34.2964	40.6312
34.3057	27.8940
34.3149	23.7525
34.3241	18.3751
34.3333	6.1790
34.3425	12.3678
34.3518	7.9909
34.3610	22.1583
34.3702	8.7404
34.3794	15.4003
34.3887	14.5490
34.3979	21.2082
34.4071	51.2970
34.4163	14.5382
34.4255	25.2073
34.4348	13.9524
34.4440	-7.2108
34.4532	18.8960
34.4624	32.4448
34.4717	18.5140
34.4809	9.3058
34.4901	20.4506
34.4993	4.7859
34.5085	-16.1515
34.5178	13.6193
34.5270	-22.3381
34.5362	15.3301
34.5454	15.7858
34.5547	23.8620
34.5639	18.9658
34.5731	25.2202
34.5823	21.7052
34.5916	28.0014
34.6008	5.6044
34.6100	31.4032
34.6192	-15.2909
34.6284	15.9810
34.6377	18.4417
34.6469	51.0312
34.6561	21.2286
34.6653	35.4689
34.6746	2.9559
34.6838	16.7209
34.6930	16.1862
34.7022	-3.8971
34.7114	10.5710
34.7207	28.2183
34.7299	13.3286
34.7391	31.7647
34.7483	32.3966
34.7576	42.5204
34.7668	13.0699
34.7760	35.1934
34.7852	14.3790
34.7945	7.3594
34.8037	9.3328
34.8129	14.7998
34.8221	31.0463
34.8313	3.2420
34.8406	18.4083
34.8498	28.1275
34.8590	-3.3137
34.8682	5.7823
34.8775	-9.2076
34.8867	14.4018
34.8959	37.4588
34.9051	2.5153
34.9143	35.9827
34.9236	7.3138
34.9328	37.4867
34.9420	-13.0451
34.9512	-2.6491
34.9605	27.6554
34.9697	1.2419
34.9789	21.6739
34.9881	9.5183
34.9973	19.4984
35.0066	14.8973
35.0158	8.5555
35.0250	33.9786
35.0342	5.1113
35.0435	-11.4588
35.0527	40.5596
35.0619	31.3141
35.0711	33.9683
35.0804	3.7046
35.0896	11.0630
35.0988	30.2694
35.1080	22.8205
35.1172	-4.7038
35.1265	28.3696
35.1357	4.0323
35.1449	6.1221
35.1541	24.2094
35.1634	13.1966
35.1726	22.9154
35.1818	13.2471
35.1910	27.0999
35.2002	3.2055
35.2095	9.0526
35.2187	23.4518
35.2279	27.1744
35.2371	16.9841
35.2464	37.0956
35.2556	6.9494
35.2648	19.2768
35.2740	-13.4565
35.2833	10.8257
35.2925	10.7323
35.3017	15.4658
35.3109	11.6273
35.3201	24.2826
35.3294	19.3704
35.3386	33.8071
35.3478	8.4730
35.3570	26.1275
35.3663	18.7468
35.3755	4.6605
35.3847	21.4714
35.3939	14.5133
35.4031	12.5639
35.4124	-1.1129
35.4216	30.6863
35.4308	-9.6412
35.4400	-0.8477
35.4493	17.4288
35.4585	-18.2171
35.4677	16.0000
35.4769	9.7813
35.4862	30.2574
35.4954	33.8822
35.5046	30.1618
35.5138	2.2076
35.5230	7.4069
35.5323	10.9198
35.5415	5.4283
35.5507	-12.5002
35.5599	-4.4655
35.5692	3.2625
35.5784	-1.8576
35.5876	21.0688
35.5968	23.8014
35.6060	4.8411
35.6153	23.4142
35.6245	-4.4254
35.6337	3.5146
35.6429	-5.1264
35.6522	18.8279
35.6614	42.9346
35.6706	-2.8944
35.6798	42.2589
35.6890	23.5699
35.6983	15.0177
35.7075	2.6222
35.7167	5.5367
35.7259	-16.6732
35.7352	9.5722
35.7444	4.3562
35.7536	-5.2927
35.7628	11.2114
35.7721	43.7049
35.7813	28.1377
35.7905	17.4164
35.7997	19.3712
35.8089	17.7889
35.8182	-3.7021
35.8274	19.4161
35.8366	0.9367
35.8458	1.5228
35.8551	10.4418
35.8643	35.5559
35.8735	-8.5037
35.8827	15.6771
35.8919	18.3293
35.9012	-4.5192
35.9104	9.7757
35.9196	22.1748
35.9288	19.0818
35.9381	23.4027
35.9473	3.8343
35.9565	12.4035
35.9657	15.4944
35.9750	23.9071
35.9842	-5.9344
35.9934	0.0903
36.0026	4.7629
36.0118	10.8823
36.0211	-1.2135
36.0303	-8.7664
36.0395	1.1969
36.0487	1.3470
36.0580	20.4489
36.0672	18.1933
36.0764	-2.8089
36.0856	-22.5755
36.0948	13.2027
36.1041	17.6357
36.1133	17.8109
36.1225	3.8962
36.1317	22.4573
36.1410	13.0944
36.1502	-20.0590
36.1594	2.3080
36.1686	5.6490
36.1778	-12.0572
36.1871	4.4745
36.1963	-5.5054
36.2055	-0.2827
36.2147	10.2414
36.2240	5.7800
36.2332	18.1904
36.2424	14.4143
36.2516	25.3044
36.2609	1.3862
36.2701	14.2299
36.2793	3.2132
36.2885	3.5071
36.2977	14.6566
36.3070	28.9043
36.3162	8.7233
36.3254	4.9618
36.3346	15.9525
36.3439	-3.5517
36.3531	37.6664
36.3623	2.2285
36.3715	9.5982
36.3807	16.3706
36.3900	1.7386
36.3992	-4.0523
36.4084	-11.6880
36.4176	17.0216
36.4269	-0.1382
36.4361	14.2940
36.4453	13.3289
36.4545	4.2410
36.4638	4.4824
36.4730	-20.3955
36.4822	9.1181
36.4914	6.1178
36.5006	17.3737
36.5099	20.9097
36.5191	12.9491
36.5283	-0.9861
36.5375	-19.8971
36.5468	8.4694
36.5560	17.0163
36.5652	-6.2662
36.5744	6.7860
36.5836	2.5794
36.5929	6.7211
36.6021	-3.6889
36.6113	-3.7252
36.6205	20.4250
36.6298	3.7241
36.6390	0.6658
36.6482	11.7452
36.6574	11.2850
36.6667	-3.7475
36.6759	18.9102
36.6851	9.4593
36.6943	42.4700
36.7035	3.7603
36.7128	-6.1105
36.7220	-9.9893
36.7312	14.3988
36.7404	11.9786
36.7497	17.6899
36.7589	18.2550
36.7681	40.5060
36.7773	20.3351
36.7865	-5.0413
36.7958	6.7456
36.8050	6.7852
36.8142	14.4295
36.8234	20.5882
36.8327	15.2332
36.8419	2.8691
36.8511	-0.4419
36.8603	28.2444
36.8695	26.1741
36.8788	-5.5539
36.8880	15.5570
36.8972	-1.4721
36.9064	4.7844
36.9157	6.0554
36.9249	-15.6736
36.9341	19.8395
36.9433	3.7637
36.9526	20.1857
36.9618	19.8321
36.9710	7.0799
36.9802	-21.4900
36.9894	-1.8208
36.9987	-2.3451
37.0079	2.8907
37.0171	31.6454
37.0263	-5.0129
37.0356	1.1386
37.0448	13.5812
37.0540	6.7075
37.0632	-10.5742
37.0724	34.6574
37.0817	15.6731
37.0909	-9.6625
37.1001	0.7821
37.1093	16.8863
37.1186	16.3078
37.1278	14.6133
37.1370	4.6171
37.1462	0.9812
37.1555	25.9312
37.1647	4.3019
37.1739	2.7975
37.1831	2.6579
37.1923	7.0543
37.2016	-5.1741
37.2108	21.1884
37.2200	8.9597
37.2292	8.9725
37.2385	0.0217
37.2477	1.8135
37.2569	20.8478
37.2661	15.6778
37.2753	12.2752
37.2846	35.1220
37.2938	34.9270
37.3030	41.8758
37.3122	20.9468
37.3215	62.0789
37.3307	67.0174
37.3399	54.8780
37.3491	42.4564
37.3583	23.3889
37.3676	24.5612
37.3768	23.3929
37.3860	35.9208
37.3952	4.7164
37.4045	4.4261
37.4137	-13.0860
37.4229	-3.4901
37.4321	12.2905
37.4414	18.0925
37.4506	17.4109
37.4598	16.4496
37.4690	5.6035
37.4782	16.5984
37.4875	7.1457
37.4967	12.7528
37.5059	6.8876
37.5151	9.3028
37.5244	7.4068
37.5336	10.4033
37.5428	34.7521
37.5520	4.2256
37.5612	-15.0613
37.5705	12.7628
37.5797	2.0216
37.5889	27.2899
37.5981	17.0288
37.6074	8.2668
37.6166	-2.8901
37.6258	19.2996
37.6350	13.3836
37.6443	25.3924
37.6535	21.8877
37.6627	-3.4244
37.6719	-9.5255
37.6811	15.3869
37.6904	-0.0955
37.6996	10.9963
37.7088	5.0269
37.7180	2.7236
37.7273	18.8614
37.7365	0.9429
37.7457	6.0069
37.7549	10.9265
37.7641	13.8559
37.7734	-0.3595
37.7826	18.9212
37.7918	10.7248
37.8010	20.2123
37.8103	-5.2623
37.8195	13.6297
37.8287	13.5399
37.8379	6.4511
37.8472	23.4019
37.8564	13.5101
37.8656	-1.9586
37.8748	-2.3003
37.8840	22.7521
37.8933	16.6104
37.9025	18.8533
37.9117	12.5383
37.9209	4.2827
37.9302	20.5901
37.9394	15.0475
37.9486	20.5438
37.9578	0.8740
37.9670	-5.6885
37.9763	-3.1720
37.9855	15.4667
37.9947	18.4473
38.0039	-2.4251
38.0132	5.0978
38.0224	6.3974
38.0316	21.2567
38.0408	19.2053
38.0500	13.4032
38.0593	8.4876
38.0685	8.5064
38.0777	14.3797
38.0869	8.1241
38.0962	8.7875
38.1054	23.0107
38.1146	7.7205
38.1238	-2.4849
38.1331	-1.0931
38.1423	-3.2706
38.1515	28.1847
38.1607	24.3267
38.1699	-9.8253
38.1792	1.2041
38.1884	0.5267
38.1976	17.4985
38.2068	22.2832
38.2161	26.1287
38.2253	2.9978
38.2345	4.0733
38.2437	-0.9808
38.2529	13.7620
38.2622	4.6117
38.2714	14.1552
38.2806	19.4885
38.2898	16.4938
38.2991	12.9198
38.3083	27.8833
38.3175	13.4726
38.3267	12.5663
38.3360	6.1033
38.3452	-1.2542
38.3544	15.4263
38.3636	-10.4768
38.3728	20.0267
38.3821	15.1071
38.3913	13.7081
38.4005	17.7913
38.4097	29.8666
38.4190	49.7903
38.4282	26.1967
38.4374	11.1480
38.4466	13.7572
38.4558	2.0018
38.4651	22.0692
38.4743	6.3222
38.4835	21.8305
38.4927	10.3191
38.5020	18.1921
38.5112	21.3549
38.5204	6.7060
38.5296	0.9921
38.5388	30.9177
38.5481	-6.3644
38.5573	4.3377
38.5665	11.7664
38.5757	42.8115
38.5850	21.5895
38.5942	32.1514
38.6034	32.1119
38.6126	-0.5711
38.6219	6.2505
38.6311	20.4230
38.6403	-3.9458
38.6495	-7.0401
38.6587	4.8249
38.6680	-6.6084
38.6772	10.7486
38.6864	19.3032
38.6956	34.6500
38.7049	-1.7924
38.7141	14.0179
38.7233	11.9900
38.7325	13.5097
38.7417	20.0247
38.7510	8.8977
38.7602	0.9001
38.7694	20.9692
38.7786	2.0175
38.7879	-6.8320
38.7971	-5.2251
38.8063	35.6494
38.8155	-1.1786
38.8248	-0.6151
38.8340	21.1713
38.8432	20.5396
38.8524	2.4783
38.8616	3.7357
38.8709	22.9992
38.8801	10.4560
38.8893	10.8116
38.8985	19.6213
38.9078	0.9902
38.9170	18.7362
38.9262	6.7860
38.9354	31.4590
38.9446	16.3132
38.9539	8.9293
38.9631	5.2745
38.9723	-7.7641
38.9815	11.0346
38.9908	5.7621
39.0000	17.3972
39.0092	13.6168
39.0184	1.2564
39.0277	17.9369
39.0369	38.5414
39.0461	2.4381
39.0553	28.2281
39.0645	22.9584
39.0738	14.3201
39.0830	15.0623
39.0922	19.6395
39.1014	1.9287
39.1107	22.0030
39.1199	25.9046
39.1291	9.1390
39.1383	8.0265
39.1475	16.8175
39.1568	19.0077
39.1660	12.6687
39.1752	7.7358
39.1844	11.8970
39.1937	26.8030
39.2029	20.7065
39.2121	6.4100
39.2213	25.5878
39.2305	19.9345
39.2398	13.3251
39.2490	20.4434
39.2582	29.9062
39.2674	22.7958
39.2767	14.8211
39.2859	4.4702
39.2951	17.8384
39.3043	2.2372
39.3136	-8.5846
39.3228	9.2085
39.3320	5.2474
39.3412	10.4139
39.3504	19.5370
39.3597	-2.0412
39.3689	10.0039
39.3781	18.1484
39.3873	-0.6397
39.3966	15.8917
39.4058	8.9304
39.4150	19.9177
39.4242	17.2639
39.4334	18.9276
39.4427	11.9930
39.4519	9.9692
39.4611	8.4152
39.4703	13.5555
39.4796	-4.5156
39.4888	-4.5773
39.4980	-13.3135
39.5072	14.5511
39.5165	3.1856
39.5257	24.3772
39.5349	9.5842
39.5441	-9.7294
39.5533	14.6847
39.5626	28.0141
39.5718	10.7121
39.5810	6.1108
39.5902	28.3307
39.5995	18.6426
39.6087	5.5247
39.6179	24.7810
39.6271	10.0850
39.6363	16.8491
39.6456	20.6625
39.6548	6.4647
39.6640	16.5269
39.6732	11.7468
39.6825	19.2049
39.6917	31.5666
39.7009	43.6031
39.7101	15.2952
39.7193	10.1300
39.7286	32.9422
39.7378	31.0873
39.7470	36.3012
39.7562	3.5588
39.7655	23.2501
39.7747	12.8439
39.7839	20.0395
39.7931	28.6398
39.8024	20.1050
39.8116	12.3622
39.8208	20.4205
39.8300	11.0440
39.8392	7.7579
39.8485	3.6879
39.8577	29.1450
39.8669	-1.1933
39.8761	6.8201
39.8854	11.4388
39.8946	10.4665
39.9038	8.6808
39.9130	12.0315
39.9222	34.6272
39.9315	32.7176
39.9407	2.9510
39.9499	22.0146
39.9591	28.3082
39.9684	6.6382
39.9776	24.5256
39.9868	7.5322
39.9960	-10.3989
40.0053	28.6230
40.0145	10.6568
40.0237	6.0678
40.0329	17.2765
40.0421	5.2175
40.0514	5.7436
40.0606	4.7459
40.0698	27.5691
40.0790	-3.6936
40.0883	-7.2705
40.0975	4.6689
40.1067	6.7168
40.1159	24.6613
40.1251	25.7330
40.1344	13.9983
40.1436	17.7261
40.1528	15.5156
40.1620	12.6146
40.1713	-0.7326
40.1805	4.5179
40.1897	16.9996
40.1989	20.2953
40.2082	-3.8754
40.2174	26.2857
40.2266	15.1019
40.2358	29.5610
40.2450	35.3265
40.2543	14.1670
40.2635	3.7237
40.2727	39.5155
40.2819	27.9666
40.2912	20.5037
40.3004	24.7392
40.3096	12.9619
40.3188	16.4908
40.3280	16.8955
40.3373	15.5085
40.3465	8.9014
40.3557	-1.2522
40.3649	23.3363
40.3742	5.0431
40.3834	-0.0255
40.3926	6.6879
40.4018	11.4073
40.4110	4.6932
40.4203	35.8209
40.4295	12.7562
40.4387	-2.6441
40.4479	12.4301
40.4572	13.4715
40.4664	-8.5113
40.4756	14.2764
40.4848	1.8849
40.4941	-3.2884
40.5033	12.9399
40.5125	-3.9162
40.5217	-5.8278
40.5309	5.6137
40.5402	1.5024
40.5494	4.7892
40.5586	12.9922
40.5678	7.7750
40.5771	16.6651
40.5863	12.8371
40.5955	18.5500
40.6047	14.5233
40.6139	29.1757
40.6232	20.7647
40.6324	26.5246
40.6416	27.0149
40.6508	1.0512
40.6601	14.6538
40.6693	15.8056
40.6785	22.0921
40.6877	18.3719
40.6970	36.3613
40.7062	11.0218
40.7154	10.9264
40.7246	19.4448
40.7338	18.0999
40.7431	36.3023
40.7523	14.0531
40.7615	12.3349
40.7707	7.8525
40.7800	14.1968
40.7892	34.4189
40.7984	39.6413
40.8076	11.4963
40.8168	14.9359
40.8261	17.0737
40.8353	10.0098
40.8445	12.0092
40.8537	23.1522
40.8630	2.4723
40.8722	-6.7030
40.8814	-11.7990
40.8906	24.7149
40.8998	-4.5034
40.9091	7.3514
40.9183	5.4355
40.9275	0.4559
40.9367	21.9303
40.9460	15.3849
40.9552	7.9215
40.9644	4.0681
40.9736	18.6208
40.9829	0.8127
40.9921	13.5594
41.0013	22.1345
41.0105	21.3600
41.0197	11.2600
41.0290	11.1044
41.0382	15.5267
41.0474	4.7994
41.0566	-18.1517
41.0659	7.2380
41.0751	16.5045
41.0843	0.4953
41.0935	22.8987
41.1027	11.8331
41.1120	4.2611
41.1212	26.4908
41.1304	28.0471
41.1396	41.5144
41.1489	10.7169
41.1581	33.2387
41.1673	13.9637
41.1765	28.5442
41.1858	6.8558
41.1950	13.8286
41.2042	9.1303
41.2134	24.7195
41.2226	8.6842
41.2319	6.1294
41.2411	29.4498
41.2503	9.5016
41.2595	18.9476
41.2688	1.7394
41.2780	8.1321
41.2872	21.7428
41.2964	6.7662
41.3056	36.9779
41.3149	31.4189
41.3241	19.3767
41.3333	23.4299
41.3425	17.2276
41.3518	12.3179
41.3610	4.7593
41.3702	14.7701
41.3794	12.5184
41.3887	3.6212
41.3979	9.0879
41.4071	1.6109
41.4163	13.2045
41.4255	-3.0174
41.4348	11.6195
41.4440	6.9737
41.4532	20.9816
41.4624	20.7704
41.4717	13.6075
41.4809	14.2806
41.4901	17.3351
41.4993	4.3296
41.5085	14.9460
41.5178	-10.4720
41.5270	8.9941
41.5362	6.4019
41.5454	16.7241
41.5547	8.4983
41.5639	2.8763
41.5731	6.5726
41.5823	21.3866
41.5915	-1.8652
41.6008	12.3335
41.6100	9.9544
41.6192	9.1661
41.6284	12.4582
41.6377	17.1719
41.6469	20.2421
41.6561	16.3365
41.6653	-0.6170
41.6746	1.5039
41.6838	2.6939
41.6930	12.9430
41.7022	17.0390
41.7114	7.1348
41.7207	10.0267
41.7299	1.9678
41.7391	2.3936
41.7483	5.3922
41.7576	22.0090
41.7668	15.3716
41.7760	10.1774
41.7852	12.5621
41.7944	-11.7121
41.8037	8.4059
41.8129	5.6823
41.8221	12.1190
41.8313	26.7125
41.8406	8.2999
41.8498	1.4939
41.8590	22.6948
41.8682	3.2375
41.8775	3.0473
41.8867	2.5464
41.8959	28.5879
41.9051	5.5569
41.9143	-8.5893
41.9236	-0.0931
41.9328	31.5913
41.9420	12.6921
41.9512	10.3788
41.9605	21.4002
41.9697	-9.1254
41.9789	13.5037
41.9881	12.9510
41.9973	7.4880
42.0066	-2.1712
42.0158	18.0959
42.0250	10.5493
42.0342	2.6030
42.0435	3.0063
42.0527	19.7983
42.0619	13.3458
42.0711	15.6050
42.0803	15.6687
42.0896	14.3525
42.0988	7.4675
42.1080	5.1031
42.1172	-14.0433
42.1265	12.3864
42.1357	12.7540
42.1449	12.8775
42.1541	-0.8467
42.1634	9.5334
42.1726	16.0332
42.1818	8.7572
42.1910	1.2634
42.2002	-6.6895
42.2095	-0.8171
42.2187	-1.8376
42.2279	-5.8121
42.2371	12.0548
42.2464	20.6119
42.2556	22.2515
42.2648	35.2630
42.2740	13.0602
42.2832	7.7674
42.2925	8.5445
42.3017	19.0242
42.3109	3.9605
42.3201	11.7854
42.3294	11.5955
42.3386	25.5773
42.3478	8.6104
42.3570	19.4750
42.3663	26.7591
42.3755	0.4321
42.3847	18.7898
42.3939	4.2556
42.4031	14.0927
42.4124	3.2572
42.4216	9.8065
42.4308	18.7018
42.4400	-3.4414
42.4493	0.1908
42.4585	2.9316
42.4677	-19.0998
42.4769	18.0826
42.4861	23.5493
42.4954	35.5089
42.5046	-9.9910
42.5138	0.6039
42.5230	3.6570
42.5323	-0.4786
42.5415	10.5249
42.5507	-12.2577
42.5599	28.6074
42.5691	4.8223
42.5784	11.2187
42.5876	-9.5592
42.5968	-4.8382
42.6060	23.0163
42.6153	1.6971
42.6245	-0.9695
42.6337	4.2179
42.6429	22.0471
42.6522	16.1519
42.6614	1.9482
42.6706	0.0066
42.6798	20.7379
42.6890	31.0045
42.6983	3.8355
42.7075	19.0154
42.7167	13.7143
42.7259	22.3077
42.7352	8.7538
42.7444	12.6034
42.7536	13.4667
42.7628	10.3061
42.7720	6.2656
42.7813	19.7667
42.7905	16.3698
42.7997	-3.4384
42.8089	20.1169
42.8182	25.9672
42.8274	6.4481
42.8366	1.2279
42.8458	17.4489
42.8551	22.8135
42.8643	21.3705
42.8735	1.1650
42.8827	19.0468
42.8919	16.4353
42.9012	43.2107
42.9104	19.5422
42.9196	1.4556
42.9288	12.1128
42.9381	20.3271
42.9473	12.2223
42.9565	-6.7550
42.9657	9.7231
42.9749	18.3996
42.9842	24.0833
42.9934	22.6519
43.0026	8.9549
43.0118	27.7008
43.0211	18.7131
43.0303	11.4924
43.0395	13.3769
43.0487	13.6055
43.0580	-6.4168
43.0672	6.7623
43.0764	-2.8617
43.0856	11.1620
43.0948	20.9011
43.1041	14.0137
43.1133	12.2767
43.1225	1.9971
43.1317	-4.9213
43.1410	2.4064
43.1502	17.4463
43.1594	4.4562
43.1686	-3.9621
43.1778	10.3124
43.1871	7.8940
43.1963	4.6099
43.2055	-7.0678
43.2147	-3.6342
43.2240	19.7005
43.2332	4.8107
43.2424	7.2406
43.2516	-0.4438
43.2608	8.1583
43.2701	19.2635
43.2793	9.9425
43.2885	-3.1764
43.2977	5.9928
43.3070	27.9771
43.3162	11.3630
43.3254	23.7678
43.3346	9.1406
43.3439	52.3976
43.3531	21.3851
43.3623	29.1348
43.3715	36.9083
43.3807	41.5849
43.3900	53.7473
43.3992	67.4039
43.4084	63.8705
43.4176	58.2118
43.4269	33.5384
43.4361	20.4328
43.4453	29.7729
43.4545	8.7893
43.4637	-0.8627
43.4730	17.7901
43.4822	18.9177
43.4914	18.0470
43.5006	15.5324
43.5099	3.1647
43.5191	25.9783
43.5283	9.2539
43.5375	19.7709
43.5468	19.0886
43.5560	19.0608
43.5652	12.7739
43.5744	16.2404
43.5836	11.2340
43.5929	10.4378
43.6021	33.1362
43.6113	34.7000
43.6205	-6.2324
43.6298	11.9688
43.6390	18.1471
43.6482	5.4719
43.6574	30.8276
43.6666	27.7537
43.6759	1.6904
43.6851	-0.4463
43.6943	23.0228
43.7035	-9.0348
43.7128	3.9221
43.7220	-5.9976
43.7312	12.2405
43.7404	15.6285
43.7496	1.6156
43.7589	0.1106
43.7681	10.5897
43.7773	1.8934
43.7865	14.0741
43.7958	-10.1468
43.8050	14.9871
43.8142	15.0483
43.8234	2.2922
43.8327	8.3602
43.8419	18.4056
43.8511	20.9521
43.8603	16.2615
43.8695	9.8291
43.8788	-5.6119
43.8880	-1.1163
43.8972	14.5469
43.9064	17.1451
43.9157	5.5608
43.9249	19.9501
43.9341	20.4739
43.9433	-3.5863
43.9525	31.0022
43.9618	7.6649
43.9710	-1.1872
43.9802	17.8083
43.9894	32.8141
43.9987	22.9987
44.0079	22.3140
44.0171	-5.5798
44.0263	13.8877
44.0356	32.8540
44.0448	17.8643
44.0540	2.3354
44.0632	15.5026
44.0724	37.7138
44.0817	5.7310
44.0909	0.9195
44.1001	15.8195
44.1093	11.1428
44.1186	7.7166
44.1278	11.5648
44.1370	5.0152
44.1462	6.0450
44.1554	24.5395
44.1647	17.2004
44.1739	15.1155
44.1831	5.9590
44.1923	10.6294
44.2016	-9.4015
44.2108	15.2100
44.2200	5.2384
44.2292	30.8765
44.2385	16.7252
44.2477	20.7047
44.2569	13.2672
44.2661	7.1793
44.2753	2.5804
44.2846	21.7095
44.2938	14.4596
44.3030	2.0635
44.3122	2.6321
44.3215	15.3363
44.3307	1.0222
44.3399	17.5388
44.3491	-1.4892
44.3583	-4.1703
44.3676	18.2432
44.3768	24.3103
44.3860	14.3094
44.3952	3.3882
44.4045	30.2608
44.4137	11.1523
44.4229	22.5497
44.4321	9.7050
44.4413	-6.9227
44.4506	4.5219
44.4598	9.3726
44.4690	28.7045
44.4782	23.3143
44.4875	7.9784
44.4967	33.7792
44.5059	26.8003
44.5151	-0.9936
44.5244	-5.8269
44.5336	0.7552
44.5428	10.2664
44.5520	32.0840
44.5612	23.6207
44.5705	18.5313
44.5797	25.2541
44.5889	38.0018
44.5981	33.5166
44.6074	11.3698
44.6166	35.9309
44.6258	6.2376
44.6350	44.9124
44.6442	31.0164
44.6535	18.7710
44.6627	9.5388
44.6719	21.7685
44.6811	21.3009
44.6904	9.2204
44.6996	14.1915
44.7088	5.2477
44.7180	11.2918
44.7273	42.6986
44.7365	22.0457
44.7457	6.8131
44.7549	35.5712
44.7641	19.6363
44.7734	15.2809
44.7826	7.5386
44.7918	18.5594
44.8010	35.8837
44.8103	30.1569
44.8195	15.7051
44.8287	12.8467
44.8379	6.1481
44.8471	6.1568
44.8564	2.7250
44.8656	4.9841
44.8748	-6.7451
44.8840	-4.0288
44.8933	25.3645
44.9025	10.2684
44.9117	24.1978
44.9209	-1.3992
44.9301	-8.5548
44.9394	19.3942
44.9486	-13.1942
44.9578	11.4673
44.9670	17.3347
44.9763	11.5943
44.9855	27.7804
44.9947	15.6856
45.0039	19.8298
45.0132	-4.0155
45.0224	16.1403
45.0316	30.6445
45.0408	2.4059
45.0500	17.1657
45.0593	-3.5595
45.0685	15.1342
45.0777	6.6768
45.0869	9.2394
45.0962	10.1547
45.1054	4.3956
45.1146	24.9131
45.1238	4.2823
45.1330	23.4117
45.1423	15.1389
45.1515	13.1827
45.1607	35.7924
45.1699	28.8191
45.1792	23.9855
45.1884	17.1369
45.1976	-4.7490
45.2068	15.4923
45.2161	25.8420
45.2253	30.5781
45.2345	37.8564
45.2437	19.6253
45.2529	8.7045
45.2622	27.9056
45.2714	1.2792
45.2806	28.4528
45.2898	0.5649
45.2991	34.3959
45.3083	18.8033
45.3175	8.1905
45.3267	19.6739
45.3359	6.1404
45.3452	15.2526
45.3544	5.7331
45.3636	24.3213
45.3728	23.2120
45.3821	23.6316
45.3913	36.8149
45.4005	24.6179
45.4097	29.1591
45.4190	42.4423
45.4282	40.2434
45.4374	29.0622
45.4466	33.0721
45.4558	50.6501
45.4651	60.3960
45.4743	73.5684
45.4835	100.3291
45.4927	83.5370
45.5020	52.9647
45.5112	58.8052
45.5204	40.6514
45.5296	33.6469
45.5388	27.3339
45.5481	25.9336
45.5573	17.3366
45.5665	11.3464
45.5757	24.4011
45.5850	13.9324
45.5942	21.5443
45.6034	24.8228
45.6126	26.4544
45.6218	21.3217
45.6311	15.3982
45.6403	27.3980
45.6495	-2.9367
45.6587	-0.4669
45.6680	2.7234
45.6772	12.0302
45.6864	-8.4597
45.6956	16.1231
45.7049	15.5994
45.7141	-2.8251
45.7233	19.6865
45.7325	40.4031
45.7417	46.0445
45.7510	61.3566
45.7602	25.7511
45.7694	6.9849
45.7786	13.2222
45.7879	1.8953
45.7971	33.6821
45.8063	10.3637
45.8155	32.9444
45.8247	18.3525
45.8340	8.4981
45.8432	18.8264
45.8524	13.6298
45.8616	6.7310
45.8709	16.1461
45.8801	21.8007
45.8893	-2.0335
45.8985	6.7484
45.9078	23.3165
45.9170	28.1044
45.9262	8.8552
45.9354	4.5955
45.9446	34.9736
45.9539	29.7183
45.9631	12.1967
45.9723	20.6032
45.9815	32.5750
45.9908	35.4452
46.0000	27.5759
46.0092	28.6294
46.0184	16.8192
46.0276	-5.1903
46.0369	-9.2492
46.0461	6.1089
46.0553	14.5149
46.0645	25.5597
46.0738	9.6652
46.0830	10.9688
46.0922	3.7497
46.1014	20.9911
46.1106	4.9392
46.1199	8.6524
46.1291	6.4059
46.1383	21.8427
46.1475	12.5762
46.1568	38.4453
46.1660	23.1016
46.1752	27.8634
46.1844	30.9476
46.1937	19.9521
46.2029	0.6235
46.2121	5.0007
46.2213	3.5041
46.2305	21.3189
46.2398	24.4649
46.2490	4.7942
46.2582	14.0480
46.2674	17.6858
46.2767	8.1810
46.2859	11.2368
46.2951	-2.2266
46.3043	-3.2633
46.3135	36.9500
46.3228	16.3265
46.3320	25.8127
46.3412	24.2932
46.3504	23.0088
46.3597	10.9131
46.3689	12.5241
46.3781	40.9011
46.3873	-4.7137
46.3966	12.7495
46.4058	31.6647
46.4150	15.7929
46.4242	12.8275
46.4334	13.2602
46.4427	15.5161
46.4519	2.1665
46.4611	7.9516
46.4703	-5.0070
46.4796	-0.6293
46.4888	4.3650
46.4980	28.6379
46.5072	25.2915
46.5164	4.7533
46.5257	1.7132
46.5349	12.4127
46.5441	9.9726
46.5533	14.9153
46.5626	15.7426
46.5718	9.6111
46.5810	28.8745
46.5902	28.3841
46.5995	20.7603
46.6087	-1.1092
46.6179	0.2599
46.6271	-12.9850
46.6363	0.7513
46.6456	15.3456
46.6548	11.2738
46.6640	28.7440
46.6732	-6.7076
46.6825	9.1541
46.6917	16.2315
46.7009	-5.0567
46.7101	12.7616
46.7193	22.7062
46.7286	23.8490
46.7378	14.9016
46.7470	3.4554
46.7562	7.0702
46.7655	35.8922
46.7747	15.0919
46.7839	14.6482
46.7931	9.3819
46.8023	-13.1691
46.8116	14.3251
46.8208	11.5455
46.8300	24.4017
46.8392	26.3981
46.8485	16.1408
46.8577	11.9755
46.8669	11.7516
46.8761	-5.3066
46.8854	7.2831
46.8946	3.6954
46.9038	11.8048
46.9130	1.5781
46.9222	12.2334
46.9315	21.7760
46.9407	19.6510
46.9499	24.7413
46.9591	12.5660
46.9684	6.7438
46.9776	26.0240
46.9868	10.5097
46.9960	37.6303
47.0052	24.6942
47.0145	19.8767
47.0237	0.1821
47.0329	-2.8430
47.0421	7.1847
47.0514	24.0637
47.0606	-9.9747
47.0698	-0.3008
47.0790	8.1209
47.0883	-3.5670
47.0975	17.0094
47.1067	10.7496
47.1159	13.8569
47.1251	14.7430
47.1344	-4.3174
47.1436	-5.7267
47.1528	0.0476
47.1620	10.2646
47.1713	6.7587
47.1805	11.2776
47.1897	15.1632
47.1989	13.6612
47.2081	28.0644
47.2174	8.2422
47.2266	-9.8761
47.2358	9.4341
47.2450	3.2008
47.2543	-2.4039
47.2635	-8.4506
47.2727	20.3022
47.2819	-6.7219
47.2911	3.2778
47.3004	-1.0805
47.3096	-3.8958
47.3188	4.6428
47.3280	-2.9746
47.3373	11.6950
47.3465	-0.2296
47.3557	7.0702
47.3649	27.3540
47.3742	15.6890
47.3834	-3.0795
47.3926	8.9229
47.4018	8.7428
47.4110	-3.1962
47.4203	-3.5166
47.4295	2.0830
47.4387	3.7783
47.4479	-8.2222
47.4572	14.4904
47.4664	8.6239
47.4756	13.6722
47.4848	-0.5285
47.4940	0.9539
47.5033	-3.4894
47.5125	9.7737
47.5217	8.4935
47.5309	6.1045
47.5402	6.0458
47.5494	10.1011
47.5586	16.9039
47.5678	16.1913
47.5771	8.4614
47.5863	33.3197
47.5955	13.9082
47.6047	16.0191
47.6139	-3.9367
47.6232	31.2749
47.6324	16.5223
47.6416	-12.2097
47.6508	15.3891
47.6601	3.5978
47.6693	-3.1526
47.6785	1.6893
47.6877	10.9345
47.6969	14.9852
47.7062	3.0723
47.7154	10.9557
47.7246	12.2209
47.7338	15.5228
47.7431	29.6341
47.7523	13.3457
47.7615	13.8669
47.7707	-5.9518
47.7800	-6.1178
47.7892	2.9075
47.7984	8.3673
47.8076	20.9514
47.8168	7.7663
47.8261	0.3286
47.8353	14.0782
47.8445	5.8564
47.8537	8.7056
47.8630	1.1218
47.8722	-3.3938
47.8814	-0.4178
47.8906	-3.7607
47.8998	-0.8798
47.9091	-1.5798
47.9183	3.1100
47.9275	-9.9331
47.9367	10.4853
47.9460	5.0590
47.9552	-1.4940
47.9644	-2.0084
47.9736	2.5046
47.9828	-11.0058
47.9921	-7.1246
48.0013	-8.0718
