11.0000	-24.1754
11.0092	3.4725
11.0184	-3.2587
11.0277	-3.5787
11.0369	24.8197
11.0461	-14.9405
11.0553	-25.3449
11.0646	22.9244
11.0738	3.2236
11.0830	-24.9996
11.0922	-3.1882
11.1014	-8.3249
11.1107	-40.0421
11.1199	61.1783
11.1291	-22.0982
11.1383	34.3405
11.1476	20.0105
11.1568	65.6526
11.1660	47.6534
11.1752	41.7156
11.1845	41.4914
11.1937	41.4531
11.2029	-24.1755
11.2121	-37.2725
11.2213	21.8962
11.2306	21.5461
11.2398	-34.9633
11.2490	61.1316
11.2582	-37.9204
11.2675	38.6207
11.2767	58.0457
11.2859	65.8730
11.2951	99.4256
11.3043	104.3313
11.3136	91.4419
11.3228	58.6027
11.3320	52.2392
11.3412	-0.5635
11.3505	-12.1463
11.3597	9.7246
11.3689	-61.3309
11.3781	-9.5114
11.3874	17.0472
11.3966	-18.5612
11.4058	18.4340
11.4150	99.9327
11.4242	31.6559
11.4335	78.1949
11.4427	52.3885
11.4519	41.3502
11.4611	39.1560
11.4704	-1.2280
11.4796	-0.4968
11.4888	-9.0082
11.4980	-24.5123
11.5072	25.9580
11.5165	24.9699
11.5257	-20.7042
11.5349	32.9005
11.5441	-3.2516
11.5534	78.2495
11.5626	39.4449
11.5718	-0.2749
11.5810	-3.6095
11.5902	-36.5761
11.5995	59.8004
11.6087	11.2045
11.6179	23.8087
11.6271	9.7962
11.6364	-31.9426
11.6456	29.7704
11.6548	23.2365
11.6640	49.9023
11.6733	-7.1923
11.6825	25.2192
11.6917	33.8928
11.7009	57.8047
11.7101	-0.0277
11.7194	2.6865
11.7286	29.8879
11.7378	10.9105
11.7470	52.9346
11.7563	-21.3328
11.7655	-47.9335
11.7747	20.7592
11.7839	38.8543
11.7931	78.8330
11.8024	50.3405
11.8116	3.1954
11.8208	-7.2204
11.8300	1.4245
11.8393	19.1872
11.8485	24.4339
11.8577	1.1608
11.8669	-33.1768
11.8762	26.4895
11.8854	56.6180
11.8946	-32.6415
11.9038	-14.3534
11.9130	-42.5898
11.9223	44.0927
11.9315	15.9346
11.9407	16.8007
11.9499	-36.3070
11.9592	-16.0048
11.9684	-6.4903
11.9776	25.0038
11.9868	1.2067
11.9960	-11.2832
12.0053	-5.0911
12.0145	7.4397
12.0237	49.6685
12.0329	-16.3240
12.0422	-14.4572
12.0514	-4.8161
12.0606	14.8230
12.0698	11.7325
12.0791	-24.1182
12.0883	-11.3561
12.0975	-21.5639
12.1067	42.2178
12.1159	57.4034
12.1252	21.1937
12.1344	1.5518
12.1436	55.0558
12.1528	33.7712
12.1621	77.5840
12.1713	51.3650
12.1805	28.7234
12.1897	11.4942
12.1989	-16.4856
12.2082	-1.1040
12.2174	-23.2822
12.2266	14.6442
12.2358	-47.1784
12.2451	-14.7435
12.2543	11.0024
12.2635	12.7780
12.2727	21.4855
12.2819	-5.3656
12.2912	56.5448
12.3004	-5.2311
12.3096	14.2294
12.3188	67.5459
12.3281	6.4905
12.3373	-6.6327
12.3465	13.5862
12.3557	37.0820
12.3650	-28.6485
12.3742	21.8864
12.3834	-35.5223
12.3926	8.4698
12.4018	19.0711
12.4111	-17.0834
12.4203	26.1193
12.4295	14.4550
12.4387	17.2696
12.4480	-11.5407
12.4572	27.5112
12.4664	21.0362
12.4756	-1.2877
12.4848	8.5238
12.4941	-44.4135
12.5033	-8.0980
12.5125	-27.8947
12.5217	15.3515
12.5310	-0.8031
12.5402	21.1213
12.5494	-4.5945
12.5586	6.3375
12.5679	-41.9055
12.5771	64.4246
12.5863	37.6428
12.5955	-16.8315
12.6047	-11.3994
12.6140	-18.8062
12.6232	12.4028
12.6324	-34.6666
12.6416	32.3125
12.6509	24.0429
12.6601	-33.1867
12.6693	42.0033
12.6785	-19.1601
12.6877	-4.1417
12.6970	-18.0559
12.7062	56.8364
12.7154	9.6550
12.7246	13.7363
12.7339	4.2212
12.7431	-3.7428
12.7523	-29.2042
12.7615	4.5812
12.7707	22.9371
12.7800	-29.9132
12.7892	-8.1808
12.7984	-2.1836
12.8076	49.8123
12.8169	56.2479
12.8261	40.4210
12.8353	45.2901
12.8445	48.0318
12.8538	20.1060
12.8630	34.1477
12.8722	-13.1779
12.8814	64.4534
12.8906	5.5546
12.8999	-40.0433
12.9091	-5.5616
12.9183	24.4044
12.9275	2.3520
12.9368	-17.3628
12.9460	-10.8540
12.9552	51.1689
12.9644	47.3498
12.9736	67.1094
12.9829	16.1185
12.9921	52.6951
13.0013	36.0774
13.0105	56.8306
13.0198	57.5466
13.0290	29.4097
13.0382	-25.8084
13.0474	-4.2752
13.0567	3.3324
13.0659	58.5833
13.0751	7.9127
13.0843	-14.1586
13.0935	-17.2022
13.1028	-8.7217
13.1120	11.6161
13.1212	31.0396
13.1304	78.1975
13.1397	44.3216
13.1489	0.9122
13.1581	26.6162
13.1673	39.3688
13.1765	36.8843
13.1858	39.5895
13.1950	-5.6892
13.2042	2.8229
13.2134	-21.6198
13.2227	42.6082
13.2319	53.1987
13.2411	7.4263
13.2503	45.4141
13.2596	17.3274
13.2688	-0.1760
13.2780	34.6316
13.2872	17.0650
13.2964	26.7495
13.3057	1.9485
13.3149	25.7910
13.3241	-17.5932
13.3333	-17.0291
13.3426	16.6609
13.3518	30.3543
13.3610	-0.3374
13.3702	40.3662
13.3794	-13.7950
13.3887	42.4724
13.3979	-19.5927
13.4071	9.2288
13.4163	61.6571
13.4256	12.5666
13.4348	13.5827
13.4440	20.6746
13.4532	-7.3120
13.4624	27.5772
13.4717	-6.3746
13.4809	7.7796
13.4901	14.2558
13.4993	-20.1073
13.5086	12.3960
13.5178	23.4909
13.5270	-8.4588
13.5362	-27.1755
13.5455	8.4059
13.5547	19.5460
13.5639	-23.5790
13.5731	-16.2363
13.5823	28.6944
13.5916	4.0608
13.6008	-12.3405
13.6100	31.7393
13.6192	9.5097
13.6285	59.5769
13.6377	-19.4011
13.6469	16.4757
13.6561	52.4562
13.6653	-30.5845
13.6746	4.5911
13.6838	21.0756
13.6930	3.9101
13.7022	-13.9438
13.7115	-22.1424
13.7207	28.3921
13.7299	-6.0942
13.7391	-16.4997
13.7484	5.9129
13.7576	-22.1401
13.7668	-4.0113
13.7760	-15.0040
13.7852	52.7700
13.7945	61.3126
13.8037	-65.2789
13.8129	-8.9209
13.8221	-2.4623
13.8314	-21.4055
13.8406	3.0470
13.8498	8.8904
13.8590	26.3368
13.8682	-6.0091
13.8775	11.8626
13.8867	40.1098
13.8959	-6.0683
13.9051	-10.9138
13.9144	28.0057
13.9236	3.6104
13.9328	17.6559
13.9420	-29.6845
13.9512	3.5868
13.9605	-11.7392
13.9697	-7.9916
13.9789	8.6395
13.9881	21.0646
13.9974	25.1680
14.0066	-3.0458
14.0158	-10.9860
14.0250	34.6540
14.0343	-16.2650
14.0435	33.3734
14.0527	36.8210
14.0619	-4.6186
14.0711	15.3594
14.0804	3.5764
14.0896	16.0339
14.0988	17.8745
14.1080	2.0299
14.1173	-15.7090
14.1265	-10.4360
14.1357	5.0706
14.1449	32.0543
14.1541	38.3735
14.1634	20.4333
14.1726	7.6382
14.1818	-1.6736
14.1910	17.8650
14.2003	49.1479
14.2095	36.4752
14.2187	39.7677
14.2279	-24.1122
14.2372	-24.0996
14.2464	27.9480
14.2556	4.6554
14.2648	-33.8522
14.2740	-4.6452
14.2833	45.6461
14.2925	-2.4773
14.3017	52.7191
14.3109	10.4656
14.3202	55.0306
14.3294	48.8635
14.3386	30.3239
14.3478	49.7151
14.3570	58.4150
14.3663	15.4302
14.3755	31.0986
14.3847	19.2515
14.3939	3.2681
14.4032	-8.7878
14.4124	-15.0898
14.4216	-9.6037
14.4308	-8.6602
14.4401	-0.1101
14.4493	40.8996
14.4585	12.0476
14.4677	58.7370
14.4769	-4.8730
14.4862	37.5752
14.4954	43.3546
14.5046	34.0385
14.5138	53.4708
14.5231	31.1805
14.5323	-15.0615
14.5415	-7.1145
14.5507	-9.2371
14.5599	-1.3329
14.5692	53.9981
14.5784	26.9773
14.5876	-3.7716
14.5968	-9.7921
14.6061	9.2264
14.6153	75.4940
14.6245	50.8222
14.6337	39.7099
14.6429	29.7081
14.6522	18.6843
14.6614	5.9178
14.6706	16.2882
14.6798	61.6839
14.6891	44.1742
14.6983	41.0211
14.7075	-30.3075
14.7167	-14.5188
14.7260	10.9630
14.7352	48.2943
14.7444	21.3966
14.7536	18.8708
14.7628	8.2115
14.7721	2.6123
14.7813	14.7423
14.7905	36.1939
14.7997	14.5953
14.8090	65.7965
14.8182	48.7743
14.8274	64.3038
14.8366	57.1468
14.8458	53.3169
14.8551	75.1475
14.8643	60.3454
14.8735	58.8345
14.8827	35.4162
14.8920	32.5678
14.9012	27.4644
14.9104	23.8215
14.9196	30.8443
14.9289	14.5168
14.9381	19.7429
14.9473	-3.2606
14.9565	-14.1596
14.9657	2.5461
14.9750	36.2025
14.9842	26.6529
14.9934	-3.9313
15.0026	23.8606
15.0119	52.7838
15.0211	40.9973
15.0303	33.2978
15.0395	57.3079
15.0487	60.2570
15.0580	68.6592
15.0672	23.7612
15.0764	26.7466
15.0856	32.6642
15.0949	51.1994
15.1041	-2.5259
15.1133	-4.6361
15.1225	17.6787
15.1317	-19.3991
15.1410	-1.6797
15.1502	-18.7360
15.1594	2.5452
15.1686	12.3663
15.1779	16.3319
15.1871	5.3050
15.1963	37.4038
15.2055	18.0161
15.2148	22.0989
15.2240	18.4668
15.2332	31.6894
15.2424	46.2854
15.2516	-10.7262
15.2609	21.7984
15.2701	6.6747
15.2793	36.0015
15.2885	-19.4271
15.2978	0.1208
15.3070	8.6053
15.3162	-8.0686
15.3254	40.3649
15.3346	-6.2971
15.3439	46.2887
15.3531	25.7143
15.3623	20.1565
15.3715	10.2331
15.3808	13.5623
15.3900	-9.9054
15.3992	9.6810
15.4084	2.7252
15.4177	6.2948
15.4269	3.8334
15.4361	-14.1036
15.4453	-21.5762
15.4545	43.7409
15.4638	9.1466
15.4730	3.5185
15.4822	45.7888
15.4914	10.7816
15.5007	35.6685
15.5099	41.0674
15.5191	14.3524
15.5283	28.4701
15.5375	53.8186
15.5468	24.7174
15.5560	49.1257
15.5652	30.7189
15.5744	-14.3672
15.5837	7.1736
15.5929	-11.1223
15.6021	-14.3860
15.6113	20.8269
15.6206	12.8284
15.6298	-19.4541
15.6390	14.7521
15.6482	-6.6036
15.6574	-2.9605
15.6667	39.1582
15.6759	37.2208
15.6851	19.0085
15.6943	36.2165
15.7036	54.7045
15.7128	31.8519
15.7220	25.9436
15.7312	25.5657
15.7404	42.7504
15.7497	-26.4362
15.7589	-13.6958
15.7681	-18.4267
15.7773	57.3802
15.7866	25.4410
15.7958	-7.9493
15.8050	35.3279
15.8142	39.1403
15.8234	5.5137
15.8327	8.6364
15.8419	28.8766
15.8511	2.1258
15.8603	23.4682
15.8696	27.4385
15.8788	-10.3339
15.8880	13.6163
15.8972	32.0700
15.9065	3.8053
15.9157	0.1360
15.9249	39.2489
15.9341	33.8687
15.9433	11.6300
15.9526	-20.0312
15.9618	-5.9996
15.9710	-23.9104
15.9802	25.3424
15.9895	14.4515
15.9987	12.5151
16.0079	23.7180
16.0171	2.0745
16.0263	-8.4710
16.0356	-18.4809
16.0448	32.0429
16.0540	12.2890
16.0632	29.2538
16.0725	24.6100
16.0817	-28.2563
16.0909	3.3580
16.1001	13.9605
16.1094	-3.5166
16.1186	58.9321
16.1278	4.7118
16.1370	-2.7956
16.1462	-20.1002
16.1555	2.9028
16.1647	-1.6288
16.1739	-9.0983
16.1831	19.8438
16.1924	2.8511
16.2016	10.2083
16.2108	17.1376
16.2200	3.0529
16.2292	18.0524
16.2385	37.9165
16.2477	1.5324
16.2569	23.0030
16.2661	6.4513
16.2754	22.4580
16.2846	-2.2616
16.2938	27.6105
16.3030	21.1002
16.3122	6.3435
16.3215	66.2249
16.3307	29.7140
16.3399	8.1420
16.3491	45.6896
16.3584	-15.8057
16.3676	-4.2372
16.3768	-0.4027
16.3860	5.0484
16.3953	31.2830
16.4045	42.2854
16.4137	-2.7429
16.4229	-13.1282
16.4321	-11.7057
16.4414	26.1260
16.4506	16.0458
16.4598	-0.5755
16.4690	7.5605
16.4783	13.1207
16.4875	9.8867
16.4967	-1.4408
16.5059	25.7055
16.5151	23.1516
16.5244	40.0271
16.5336	19.3996
16.5428	8.1563
16.5520	-14.2867
16.5613	45.7045
16.5705	18.7546
16.5797	10.7249
16.5889	20.6524
16.5982	-29.5853
16.6074	15.4343
16.6166	17.6225
16.6258	-4.2565
16.6350	13.8639
16.6443	20.6352
16.6535	14.1468
16.6627	-10.6679
16.6719	-5.9068
16.6812	-17.6931
16.6904	11.4100
16.6996	17.1034
16.7088	13.7537
16.7180	-10.7306
16.7273	-13.3113
16.7365	4.5253
16.7457	19.8062
16.7549	-2.4012
16.7642	16.8112
16.7734	24.4560
16.7826	4.3056
16.7918	-9.3738
16.8011	-8.5018
16.8103	-10.2901
16.8195	2.6491
16.8287	22.2328
16.8379	27.0805
16.8472	0.7702
16.8564	9.4942
16.8656	-1.2558
16.8748	43.5254
16.8841	2.3087
16.8933	14.0656
16.9025	3.0975
16.9117	21.7838
16.9209	-1.7783
16.9302	-3.4949
16.9394	-23.2125
16.9486	3.9485
16.9578	-2.9043
16.9671	19.2539
16.9763	-8.9820
16.9855	2.8167
16.9947	7.5391
17.0039	21.4890
17.0132	-11.4161
17.0224	15.7069
17.0316	28.8745
17.0408	26.1847
17.0501	2.7254
17.0593	3.6225
17.0685	2.3144
17.0777	15.2393
17.0870	11.4573
17.0962	-9.0457
17.1054	-12.6264
17.1146	-6.0039
17.1238	5.1236
17.1331	4.0775
17.1423	-3.2634
17.1515	40.4238
17.1607	1.1005
17.1700	14.0866
17.1792	4.6586
17.1884	11.8160
17.1976	31.4273
17.2068	8.1103
17.2161	27.6195
17.2253	53.5191
17.2345	30.4060
17.2437	4.9369
17.2530	10.2620
17.2622	20.4797
17.2714	-12.1125
17.2806	-12.4076
17.2899	-3.5029
17.2991	-8.3611
17.3083	-12.2581
17.3175	10.5140
17.3267	-9.8852
17.3360	-14.4896
17.3452	35.3971
17.3544	28.3344
17.3636	17.7881
17.3729	7.5243
17.3821	11.4918
17.3913	31.5567
17.4005	-10.3196
17.4097	11.8736
17.4190	30.4270
17.4282	24.9708
17.4374	11.5356
17.4466	-21.5913
17.4559	-10.9945
17.4651	-3.3648
17.4743	38.1655
17.4835	4.5111
17.4927	-15.6224
17.5020	38.5633
17.5112	11.0404
17.5204	-6.5503
17.5296	30.5720
17.5389	1.8889
17.5481	-2.1082
17.5573	39.0888
17.5665	3.8188
17.5758	5.7695
17.5850	-43.5292
17.5942	41.2346
17.6034	7.4215
17.6126	-13.0562
17.6219	14.4214
17.6311	-5.2289
17.6403	13.5503
17.6495	-14.4255
17.6588	10.1429
17.6680	-13.5213
17.6772	-9.4774
17.6864	1.7998
17.6956	4.5957
17.7049	-10.1410
17.7141	-13.2603
17.7233	10.7605
17.7325	7.7435
17.7418	6.6056
17.7510	21.2239
17.7602	-1.4693
17.7694	24.9377
17.7787	16.7110
17.7879	7.4501
17.7971	-8.0863
17.8063	-4.2563
17.8155	7.6249
17.8248	-1.5696
17.8340	25.5207
17.8432	-5.6531
17.8524	26.0563
17.8617	5.8895
17.8709	2.1573
17.8801	-12.2006
17.8893	-22.3346
17.8985	27.8803
17.9078	-6.6965
17.9170	24.3526
17.9262	21.5681
17.9354	12.7349
17.9447	8.6964
17.9539	-4.3726
17.9631	2.9793
17.9723	10.2227
17.9816	27.0942
17.9908	23.4449
18.0000	48.7590
18.0092	-3.2631
18.0184	-12.0588
18.0277	-7.2566
18.0369	4.3227
18.0461	-2.4978
18.0553	-5.9086
18.0646	39.6907
18.0738	2.2812
18.0830	25.3576
18.0922	-11.0609
18.1014	-31.7626
18.1107	10.6011
18.1199	41.3279
18.1291	17.2232
18.1383	-17.2402
18.1476	10.5677
18.1568	21.9670
18.1660	13.9796
18.1752	-9.5271
18.1844	-2.1313
18.1937	-5.9072
18.2029	0.3437
18.2121	31.0390
18.2213	5.4502
18.2306	-8.1517
18.2398	7.8760
18.2490	31.6411
18.2582	-24.6261
18.2675	0.4193
18.2767	-13.5859
18.2859	30.2088
18.2951	17.0930
18.3043	12.8067
18.3136	-11.7254
18.3228	9.3392
18.3320	-0.7304
18.3412	-20.6956
18.3505	20.2691
18.3597	-0.7805
18.3689	21.9907
18.3781	-19.3996
18.3873	15.9614
18.3966	9.4658
18.4058	-12.7999
18.4150	-8.8296
18.4242	-12.0997
18.4335	-2.0980
18.4427	-17.5052
18.4519	2.9049
18.4611	-35.7877
18.4704	9.1800
18.4796	-4.0861
18.4888	-19.1177
18.4980	9.8622
18.5072	-11.1652
18.5165	22.1493
18.5257	51.6270
18.5349	13.8493
18.5441	11.7033
18.5534	-13.2571
18.5626	-10.7965
18.5718	27.1020
18.5810	25.7992
18.5902	12.1301
18.5995	30.5360
18.6087	1.1220
18.6179	18.5149
18.6271	-21.4932
18.6364	2.6599
18.6456	15.6660
18.6548	8.6723
18.6640	15.8521
18.6732	18.2788
18.6825	-17.9240
18.6917	-11.9429
18.7009	16.4449
18.7101	-5.7329
18.7194	-6.5636
18.7286	19.7831
18.7378	5.9948
18.7470	33.1602
18.7563	6.7851
18.7655	15.0474
18.7747	8.9347
18.7839	-6.1318
18.7931	21.8569
18.8024	-23.5048
18.8116	47.1943
18.8208	3.9367
18.8300	6.0015
18.8393	0.1099
18.8485	-5.9249
18.8577	-5.8536
18.8669	10.9848
18.8761	-34.3224
18.8854	-10.9370
18.8946	9.8228
18.9038	13.9442
18.9130	10.9624
18.9223	-1.3338
18.9315	13.7675
18.9407	-12.0258
18.9499	4.9711
18.9592	24.1497
18.9684	32.6113
18.9776	9.5710
18.9868	14.0533
18.9960	15.7431
19.0053	27.7889
19.0145	31.2853
19.0237	16.5597
19.0329	-5.5129
19.0422	-12.1650
19.0514	-4.2674
19.0606	27.7542
19.0698	-20.7198
19.0790	-11.0736
19.0883	26.8783
19.0975	-14.0357
19.1067	26.0486
19.1159	-33.4049
19.1252	-17.1334
19.1344	35.2625
19.1436	-6.5464
19.1528	19.6704
19.1621	-18.5785
19.1713	-12.1298
19.1805	-9.6859
19.1897	16.5750
19.1989	-1.5312
19.2082	35.5513
19.2174	35.7035
19.2266	42.2482
19.2358	32.6006
19.2451	-18.9574
19.2543	26.7487
19.2635	31.5199
19.2727	14.1022
19.2819	43.5970
19.2912	-3.5171
19.3004	-4.1117
19.3096	23.3496
19.3188	25.5350
19.3281	-44.5066
19.3373	-8.5099
19.3465	-3.5947
19.3557	-21.6809
19.3649	8.5517
19.3742	18.8481
19.3834	3.6059
19.3926	-19.4537
19.4018	-4.7377
19.4111	17.3026
19.4203	17.5618
19.4295	31.5757
19.4387	4.3760
19.4480	44.4794
19.4572	18.2186
19.4664	-8.3821
19.4756	8.6158
19.4848	19.3478
19.4941	3.8829
19.5033	22.1803
19.5125	46.6540
19.5217	19.5328
19.5310	11.7540
19.5402	28.4697
19.5494	31.6592
19.5586	3.2683
19.5678	-28.7487
19.5771	-0.6933
19.5863	-11.0819
19.5955	15.9695
19.6047	2.6825
19.6140	5.1334
19.6232	-19.0272
19.6324	-4.2969
19.6416	5.6362
19.6509	5.5699
19.6601	-2.9427
19.6693	14.7394
19.6785	1.4979
19.6877	30.9156
19.6970	2.5102
19.7062	5.5898
19.7154	23.6218
19.7246	5.9060
19.7339	12.6146
19.7431	30.2429
19.7523	-10.1315
19.7615	29.2557
19.7707	-9.6898
19.7800	21.1786
19.7892	3.7026
19.7984	-4.0605
19.8076	-2.5457
19.8169	9.5407
19.8261	13.0685
19.8353	26.8102
19.8445	-0.8364
19.8537	0.8853
19.8630	-11.9747
19.8722	-8.1474
19.8814	52.0316
19.8906	18.7141
19.8999	8.8437
19.9091	-9.2949
19.9183	10.5629
19.9275	33.2389
19.9368	-0.8821
19.9460	4.5441
19.9552	22.6521
19.9644	-26.8504
19.9736	17.8374
19.9829	44.1233
19.9921	6.2548
20.0013	-18.7468
20.0105	-5.2514
20.0198	32.5018
20.0290	3.7634
20.0382	18.5583
20.0474	-19.9654
20.0566	38.8471
20.0659	-5.4349
20.0751	-27.9662
20.0843	27.7630
20.0935	-13.0759
20.1028	-12.0402
20.1120	-14.7087
20.1212	48.9310
20.1304	11.5509
20.1397	-21.4476
20.1489	-7.3305
20.1581	22.9048
20.1673	17.2750
20.1765	13.6938
20.1858	-19.1156
20.1950	-0.5788
20.2042	-17.4780
20.2134	34.9924
20.2227	14.1997
20.2319	12.1286
20.2411	11.4554
20.2503	-8.4231
20.2595	28.2141
20.2688	23.6607
20.2780	6.0320
20.2872	16.2420
20.2964	12.0600
20.3057	49.8987
20.3149	48.8761
20.3241	36.2811
20.3333	-29.4711
20.3426	0.5195
20.3518	0.6785
20.3610	-4.8355
20.3702	12.7353
20.3794	2.3908
20.3887	9.9592
20.3979	14.7358
20.4071	0.9702
20.4163	3.8361
20.4256	-11.6071
20.4348	-11.3867
20.4440	-8.5209
20.4532	16.3335
20.4624	13.1479
20.4717	-0.1417
20.4809	36.4277
20.4901	25.0563
20.4993	45.1115
20.5086	43.1885
20.5178	-17.0662
20.5270	17.5685
20.5362	-6.7113
20.5454	46.9292
20.5547	46.6888
20.5639	37.5786
20.5731	8.1484
20.5823	21.8973
20.5916	22.0522
20.6008	37.4136
20.6100	5.1697
20.6192	-11.7473
20.6285	-9.8591
20.6377	-6.2663
20.6469	43.7422
20.6561	21.4973
20.6653	19.6437
20.6746	27.2757
20.6838	-2.2318
20.6930	-1.3260
20.7022	20.1380
20.7115	35.7472
20.7207	19.3982
20.7299	8.6764
20.7391	17.8504
20.7483	37.6443
20.7576	54.6784
20.7668	-14.1768
20.7760	-6.2673
20.7852	37.4006
20.7945	-8.4977
20.8037	-10.9940
20.8129	29.5596
20.8221	-10.3657
20.8314	-0.7176
20.8406	-8.7938
20.8498	15.6259
20.8590	-16.1032
20.8682	9.3437
20.8775	-9.2947
20.8867	-3.2875
20.8959	2.0243
20.9051	21.4124
20.9144	9.0739
20.9236	44.3526
20.9328	3.3419
20.9420	-11.0227
20.9512	16.8491
20.9605	34.9534
20.9697	22.0077
20.9789	16.4939
20.9881	18.9544
20.9974	18.4907
21.0066	9.8942
21.0158	42.6170
21.0250	32.6121
21.0342	14.2449
21.0435	14.0019
21.0527	38.6216
21.0619	29.4211
21.0711	61.3395
21.0804	28.6244
21.0896	5.6260
21.0988	32.1561
21.1080	32.5431
21.1173	18.9911
21.1265	54.3536
21.1357	68.5030
21.1449	43.3263
21.1541	63.1812
21.1634	38.0886
21.1726	65.7150
21.1818	49.5769
21.1910	38.3018
21.2003	55.2992
21.2095	90.0102
21.2187	130.1053
21.2279	52.5686
21.2371	84.8252
21.2464	124.9993
21.2556	184.8521
21.2648	350.3175
21.2740	740.7811
21.2833	1142.0376
21.2925	1437.1840
21.3017	1243.6588
21.3109	747.5728
21.3202	386.0999
21.3294	198.5016
21.3386	121.6544
21.3478	73.3833
21.3570	103.2725
21.3663	119.5714
21.3755	117.6194
21.3847	127.2714
21.3939	192.3455
21.4032	149.0129
21.4124	183.4199
21.4216	119.8630
21.4308	17.5751
21.4400	-62.1463
21.4493	-13.2048
21.4585	58.1777
21.4677	67.1389
21.4769	102.9793
21.4862	81.4325
21.4954	81.9788
21.5046	53.3860
21.5138	78.3423
21.5230	6.7890
21.5323	31.5279
21.5415	19.3930
21.5507	55.1555
21.5599	101.7630
21.5692	160.2335
21.5784	154.7963
21.5876	129.9044
21.5968	66.2137
21.6061	40.6479
21.6153	72.6052
21.6245	53.6018
21.6337	65.5044
21.6429	77.8168
21.6522	73.3091
21.6614	77.1272
21.6706	109.2726
21.6798	84.5190
21.6891	58.4991
21.6983	21.0468
21.7075	-14.7163
21.7167	29.4600
21.7259	48.9691
21.7352	44.4148
21.7444	65.2716
21.7536	64.8857
21.7628	31.2825
21.7721	27.4061
21.7813	36.5313
21.7905	17.2468
21.7997	8.3187
21.8090	7.1600
21.8182	20.8894
21.8274	9.8513
21.8366	44.8741
21.8458	53.9141
21.8551	32.6046
21.8643	43.0176
21.8735	24.0401
21.8827	26.7375
21.8920	-15.7893
21.9012	29.7589
21.9104	54.8240
21.9196	43.2757
21.9288	19.0610
21.9381	25.8568
21.9473	24.2499
21.9565	35.8711
21.9657	42.1171
21.9750	10.9848
21.9842	3.7350
21.9934	19.4232
22.0026	50.0375
22.0119	33.4587
22.0211	24.5573
22.0303	33.1369
22.0395	32.3959
22.0487	45.3427
22.0580	25.8907
22.0672	4.7703
22.0764	46.9301
22.0856	31.6530
22.0949	40.4229
22.1041	6.7636
22.1133	41.0431
22.1225	29.1762
22.1317	17.2696
22.1410	30.6942
22.1502	0.8249
22.1594	-1.3855
22.1686	-20.7517
22.1779	1.0248
22.1871	11.4848
22.1963	35.1059
22.2055	10.0563
22.2147	20.6238
22.2240	-18.7896
22.2332	30.6008
22.2424	24.9335
22.2516	5.3750
22.2609	37.7950
22.2701	28.9788
22.2793	25.4223
22.2885	6.6813
22.2978	49.6064
22.3070	45.9161
22.3162	16.5803
22.3254	25.0185
22.3346	-5.8952
22.3439	25.6499
22.3531	7.0704
22.3623	24.9471
22.3715	-13.1566
22.3808	-11.5151
22.3900	13.1487
22.3992	8.8910
22.4084	6.4282
22.4176	-3.6142
22.4269	-10.5016
22.4361	-8.4786
22.4453	-27.3567
22.4545	15.9488
22.4638	28.4580
22.4730	22.7710
22.4822	39.0053
22.4914	21.1132
22.5007	-19.6861
22.5099	25.5829
22.5191	34.7695
22.5283	17.4181
22.5375	-13.6851
22.5468	18.8579
22.5560	-8.9255
22.5652	13.2525
22.5744	24.0594
22.5837	19.5702
22.5929	9.4564
22.6021	-11.8265
22.6113	3.6225
22.6205	0.7810
22.6298	8.8196
22.6390	-4.2629
22.6482	-11.6615
22.6574	-5.0398
22.6667	-5.6695
22.6759	15.4208
22.6851	8.0745
22.6943	49.9493
22.7035	12.0006
22.7128	-4.4947
22.7220	14.7110
22.7312	14.1404
22.7404	34.8822
22.7497	-6.5933
22.7589	-12.3454
22.7681	30.2767
22.7773	-5.7587
22.7866	5.6556
22.7958	21.8650
22.8050	4.5603
22.8142	-0.9485
22.8234	5.7720
22.8327	-20.0300
22.8419	-3.4908
22.8511	10.7842
22.8603	-20.2254
22.8696	-1.0506
22.8788	-13.4339
22.8880	1.3410
22.8972	10.4207
22.9064	-0.7601
22.9157	-2.7852
22.9249	-25.9305
22.9341	8.9298
22.9433	9.5267
22.9526	-5.5546
22.9618	11.5904
22.9710	12.9065
22.9802	4.7190
22.9895	-41.6029
22.9987	13.1185
23.0079	-6.0612
23.0171	20.4931
23.0263	13.2174
23.0356	22.2361
23.0448	-1.0717
23.0540	-4.7869
23.0632	10.5303
23.0725	-0.2282
23.0817	-19.1991
23.0909	0.8169
23.1001	-9.3722
23.1093	-15.6444
23.1186	9.8558
23.1278	16.4458
23.1370	20.1855
23.1462	-9.5993
23.1555	0.6248
23.1647	-28.4337
23.1739	9.0000
23.1831	4.1518
23.1924	7.6201
23.2016	-4.6485
23.2108	-3.5791
23.2200	-2.4573
23.2292	7.7409
23.2385	-18.7047
23.2477	20.5273
23.2569	8.4265
23.2661	-10.5998
23.2754	-19.5844
23.2846	17.7587
23.2938	9.6874
23.3030	-8.7960
23.3122	7.1985
23.3215	-4.8321
23.3307	10.2591
23.3399	-21.4134
23.3491	4.4296
23.3584	5.0786
23.3676	-1.0915
23.3768	17.9670
23.3860	-3.8969
23.3952	-7.9189
23.4045	-1.4244
23.4137	-1.0333
23.4229	-0.9035
23.4321	-10.0746
23.4414	-38.7206
23.4506	18.8128
23.4598	-4.4655
23.4690	23.8166
23.4783	-2.9198
23.4875	-9.4055
23.4967	-13.1690
23.5059	9.6981
23.5151	8.1679
23.5244	-45.6076
23.5336	-8.0064
23.5428	-2.5552
23.5520	-1.8930
23.5613	17.8508
23.5705	12.9444
23.5797	18.6998
23.5889	30.1493
23.5981	15.0589
23.6074	7.9236
23.6166	-6.7440
23.6258	13.3180
23.6350	47.7808
23.6443	2.6245
23.6535	-7.2443
23.6627	33.2653
23.6719	5.5823
23.6812	-6.7029
23.6904	22.9141
23.6996	8.8116
23.7088	16.0785
23.7180	9.8949
23.7273	-46.3433
23.7365	19.8530
23.7457	5.1771
23.7549	5.6584
23.7642	3.5742
23.7734	35.2613
23.7826	-41.5018
23.7918	12.1175
23.8010	2.7363
23.8103	-11.7719
23.8195	-2.5428
23.8287	19.4563
23.8379	-22.5838
23.8472	7.5313
23.8564	-0.8958
23.8656	7.7939
23.8748	13.0743
23.8840	8.1674
23.8933	24.9801
23.9025	13.2613
23.9117	8.2242
23.9209	-2.2907
23.9302	26.7944
23.9394	-11.0678
23.9486	-3.7289
23.9578	16.9565
23.9671	22.8672
23.9763	-7.1873
23.9855	14.3784
23.9947	-2.4646
24.0039	31.5461
24.0132	9.3489
24.0224	-3.4523
24.0316	-2.3416
24.0408	-25.6084
24.0501	3.1306
24.0593	6.7570
24.0685	21.5214
24.0777	17.4384
24.0869	15.8583
24.0962	22.0115
24.1054	-11.4304
24.1146	-22.4094
24.1238	23.8733
24.1331	5.9505
24.1423	12.2620
24.1515	11.3619
24.1607	-9.4619
24.1700	7.4715
24.1792	23.7021
24.1884	45.7405
24.1976	45.3918
24.2068	44.0452
24.2161	-10.2928
24.2253	31.7386
24.2345	5.6975
24.2437	8.4565
24.2530	33.5727
24.2622	20.8076
24.2714	-25.1645
24.2806	30.2593
24.2898	-1.8370
24.2991	5.9851
24.3083	16.5326
24.3175	6.5252
24.3267	3.1005
24.3360	14.8116
24.3452	-5.4138
24.3544	-23.7495
24.3636	5.9842
24.3729	-1.4290
24.3821	15.9319
24.3913	21.3101
24.4005	-18.3119
24.4097	-7.4624
24.4190	24.4977
24.4282	-4.6045
24.4374	-2.7792
24.4466	-0.1940
24.4559	14.2460
24.4651	12.9111
24.4743	10.8110
24.4835	1.2023
24.4927	19.2730
24.5020	29.2870
24.5112	11.6891
24.5204	28.4091
24.5296	21.1573
24.5389	-26.1174
24.5481	14.5068
24.5573	18.0215
24.5665	-6.4268
24.5757	-11.4487
24.5850	-2.1635
24.5942	-1.8458
24.6034	-0.3984
24.6126	-12.4396
24.6219	1.1831
24.6311	12.9585
24.6403	1.2365
24.6495	-6.1164
24.6588	-1.3688
24.6680	11.3733
24.6772	4.8762
24.6864	75.9022
24.6956	11.1464
24.7049	-2.1340
24.7141	26.1755
24.7233	22.2314
24.7325	40.8715
24.7418	15.5014
24.7510	10.7098
24.7602	-3.6159
24.7694	8.2392
24.7786	23.9637
24.7879	21.0189
24.7971	22.1234
24.8063	34.3043
24.8155	4.0735
24.8248	-0.8810
24.8340	-16.5641
24.8432	1.4245
24.8524	29.8893
24.8617	0.5121
24.8709	-16.8819
24.8801	0.0805
24.8893	-27.9619
24.8985	0.7503
24.9078	23.6179
24.9170	18.7602
24.9262	6.5072
24.9354	-19.6230
24.9447	8.5885
24.9539	16.6894
24.9631	-17.1458
24.9723	21.1436
24.9815	12.6100
24.9908	4.6985
25.0000	25.6056
25.0092	-13.3668
25.0184	-7.8540
25.0277	19.4833
25.0369	13.2586
25.0461	38.5413
25.0553	-12.6730
25.0645	3.4121
25.0738	-15.3999
25.0830	1.4238
25.0922	0.3831
25.1014	-7.3315
25.1107	-10.1359
25.1199	4.2960
25.1291	-18.7761
25.1383	18.1307
25.1476	-2.7299
25.1568	21.1878
25.1660	24.2834
25.1752	10.6028
25.1844	-12.3174
25.1937	23.2060
25.2029	-7.2607
25.2121	-9.0086
25.2213	-17.5920
25.2306	9.5359
25.2398	14.1731
25.2490	6.1741
25.2582	40.2325
25.2674	-6.2279
25.2767	-25.4316
25.2859	21.8087
25.2951	3.5178
25.3043	20.0811
25.3136	14.0486
25.3228	-8.7366
25.3320	18.0396
25.3412	42.0224
25.3505	-29.4302
25.3597	-11.3241
25.3689	24.6337
25.3781	41.9903
25.3873	39.9686
25.3966	8.6827
25.4058	21.4308
25.4150	-9.3472
25.4242	27.8475
25.4335	25.5390
25.4427	3.4279
25.4519	10.5906
25.4611	7.3744
25.4703	19.5113
25.4796	10.8125
25.4888	-18.4598
25.4980	-9.7410
25.5072	47.6346
25.5165	46.2829
25.5257	-33.3127
25.5349	-4.3654
25.5441	-17.0790
25.5534	44.0550
25.5626	-0.6373
25.5718	4.9498
25.5810	-27.8621
25.5902	27.1486
25.5995	9.4499
25.6087	-1.0567
25.6179	-9.9570
25.6271	13.8446
25.6364	2.4098
25.6456	50.5790
25.6548	20.3426
25.6640	-16.1817
25.6732	-8.0154
25.6825	69.0317
25.6917	36.1305
25.7009	17.5669
25.7101	-17.3750
25.7194	7.3594
25.7286	9.8002
25.7378	41.3411
25.7470	-1.3408
25.7562	28.1468
25.7655	14.7961
25.7747	6.3620
25.7839	15.0618
25.7931	30.2105
25.8024	-16.9717
25.8116	11.0414
25.8208	8.0399
25.8300	7.2796
25.8393	-47.4712
25.8485	-6.3922
25.8577	43.0526
25.8669	10.3334
25.8761	55.4231
25.8854	0.0368
25.8946	-16.0279
25.9038	0.3030
25.9130	3.3364
25.9223	27.9344
25.9315	28.8016
25.9407	17.4179
25.9499	18.2807
25.9591	37.3154
25.9684	34.4644
25.9776	19.1256
25.9868	3.7676
25.9960	66.5280
26.0053	41.3519
26.0145	-14.4300
26.0237	-4.6792
26.0329	-14.5894
26.0422	4.4250
26.0514	36.5078
26.0606	26.0865
26.0698	25.8550
26.0790	4.2060
26.0883	-1.5415
26.0975	15.5919
26.1067	21.1312
26.1159	9.5642
26.1252	24.1509
26.1344	14.5352
26.1436	26.3203
26.1528	40.1680
26.1620	-5.7654
26.1713	32.8924
26.1805	28.1530
26.1897	14.0552
26.1989	21.4365
26.2082	15.8917
26.2174	42.2923
26.2266	44.5879
26.2358	55.9263
26.2450	60.8467
26.2543	20.5786
26.2635	25.8221
26.2727	45.4260
26.2819	9.8225
26.2912	33.5560
26.3004	38.6459
26.3096	10.7659
26.3188	36.7315
26.3281	29.6333
26.3373	50.3571
26.3465	5.4605
26.3557	12.8781
26.3649	45.2075
26.3742	7.0822
26.3834	4.8250
26.3926	-11.0296
26.4018	-6.6750
26.4111	24.8228
26.4203	70.5788
26.4295	22.0206
26.4387	29.5035
26.4479	17.7542
26.4572	31.3989
26.4664	-1.8618
26.4756	32.1865
26.4848	11.0254
26.4941	15.0188
26.5033	20.3252
26.5125	46.3605
26.5217	10.2852
26.5310	9.5760
26.5402	3.1401
26.5494	27.3052
26.5586	63.5567
26.5678	0.3580
26.5771	4.6153
26.5863	23.8221
26.5955	15.2857
26.6047	17.9655
26.6140	44.9902
26.6232	21.3476
26.6324	43.1375
26.6416	-14.7668
26.6508	7.2237
26.6601	12.2625
26.6693	9.3369
26.6785	-2.4559
26.6877	22.9116
26.6970	15.9787
26.7062	17.6992
26.7154	-3.9136
26.7246	22.1998
26.7339	6.2167
26.7431	46.7654
26.7523	37.8114
26.7615	37.3163
26.7707	11.8790
26.7800	48.2664
26.7892	14.4270
26.7984	-18.0302
26.8076	55.9831
26.8169	9.9635
26.8261	53.5569
26.8353	24.7773
26.8445	41.4085
26.8537	25.9585
26.8630	21.8896
26.8722	18.8889
26.8814	36.9349
26.8906	4.6401
26.8999	19.2712
26.9091	-12.8141
26.9183	-11.1853
26.9275	-9.3894
26.9367	30.8861
26.9460	12.5210
26.9552	47.5695
26.9644	50.2685
26.9736	-26.4656
26.9829	29.5706
26.9921	30.2481
27.0013	12.0324
27.0105	0.1174
27.0198	12.8971
27.0290	40.6338
27.0382	12.3367
27.0474	7.7775
27.0566	26.8616
27.0659	22.9368
27.0751	41.4944
27.0843	30.3764
27.0935	37.7616
27.1028	31.5640
27.1120	32.5413
27.1212	-7.3549
27.1304	-1.3859
27.1396	24.8930
27.1489	-0.9122
27.1581	2.5939
27.1673	8.4560
27.1765	17.4010
27.1858	42.0102
27.1950	-4.0122
27.2042	-4.8564
27.2134	13.9620
27.2227	-1.4465
27.2319	24.0732
27.2411	-10.8082
27.2503	5.3633
27.2595	-11.1538
27.2688	-11.8607
27.2780	-12.2486
27.2872	-16.5705
27.2964	15.4224
27.3057	1.1984
27.3149	10.7425
27.3241	27.4139
27.3333	1.5591
27.3425	7.0951
27.3518	-5.9629
27.3610	6.5382
27.3702	-9.8872
27.3794	19.0980
27.3887	13.6772
27.3979	-2.4659
27.4071	-36.0564
27.4163	11.7161
27.4255	-4.1479
27.4348	45.1665
27.4440	17.3877
27.4532	5.9793
27.4624	15.5407
27.4717	13.7154
27.4809	-0.4754
27.4901	21.9681
27.4993	-9.0434
27.5086	15.6587
27.5178	19.0501
27.5270	-10.7945
27.5362	6.7560
27.5454	-6.7138
27.5547	-12.4328
27.5639	2.5637
27.5731	12.2226
27.5823	0.1896
27.5916	4.0897
27.6008	-9.2243
27.6100	-23.5718
27.6192	9.7120
27.6284	-17.8060
27.6377	-0.4519
27.6469	11.7046
27.6561	8.6658
27.6653	19.4044
27.6746	1.6999
27.6838	24.9575
27.6930	10.2585
27.7022	2.4463
27.7115	-9.1108
27.7207	6.1908
27.7299	4.8619
27.7391	15.1289
27.7483	-0.3990
27.7576	-9.3894
27.7668	-1.0780
27.7760	25.0451
27.7852	-1.9753
27.7945	19.3196
27.8037	28.8661
27.8129	-7.2465
27.8221	2.4764
27.8313	-12.3796
27.8406	13.8417
27.8498	15.0232
27.8590	-20.3417
27.8682	-12.3259
27.8775	19.6869
27.8867	1.8949
27.8959	26.2382
27.9051	3.8390
27.9144	0.3118
27.9236	1.3857
27.9328	18.2391
27.9420	33.3107
27.9512	-0.8951
27.9605	13.3438
27.9697	11.1754
27.9789	33.2626
27.9881	32.8913
27.9974	43.0954
28.0066	37.1712
28.0158	25.0834
28.0250	-5.5107
28.0342	11.3185
28.0435	53.4895
28.0527	31.2627
28.0619	-12.5208
28.0711	40.7696
28.0804	16.2972
28.0896	16.8578
28.0988	11.9162
28.1080	4.2109
28.1172	12.6185
28.1265	2.5517
28.1357	54.8554
28.1449	-18.0167
28.1541	-5.2136
28.1634	17.2632
28.1726	3.8040
28.1818	-11.9727
28.1910	-15.3993
28.2003	17.6064
28.2095	25.9733
28.2187	-35.2078
28.2279	18.4486
28.2371	22.7634
28.2464	23.3563
28.2556	-4.1357
28.2648	6.7711
28.2740	6.5324
28.2833	55.9394
28.2925	24.8301
28.3017	18.3268
28.3109	-0.6694
28.3201	-1.1813
28.3294	75.7719
28.3386	4.1043
28.3478	25.0368
28.3570	24.0865
28.3663	26.6040
28.3755	-6.1460
28.3847	3.8831
28.3939	29.8844
28.4032	3.7715
28.4124	25.0062
28.4216	-11.4016
28.4308	0.9713
28.4400	38.9292
28.4493	-5.1435
28.4585	-12.4858
28.4677	5.6708
28.4769	9.0940
28.4862	19.8468
28.4954	19.0684
28.5046	-3.3605
28.5138	24.5717
28.5230	1.6405
28.5323	54.9105
28.5415	-26.6207
28.5507	17.7658
28.5599	-0.9155
28.5692	-12.5467
28.5784	-7.7449
28.5876	-23.6197
28.5968	32.6527
28.6060	0.2785
28.6153	-6.8623
28.6245	30.6356
28.6337	14.7497
28.6429	1.9974
28.6522	12.1899
28.6614	-24.8424
28.6706	26.8804
28.6798	6.3673
28.6891	-6.8681
28.6983	20.2274
28.7075	-31.3074
28.7167	-12.6459
28.7259	7.5453
28.7352	6.5753
28.7444	10.6514
28.7536	9.9799
28.7628	38.0493
28.7721	0.2157
28.7813	18.5461
28.7905	30.8713
28.7997	-2.0252
28.8089	22.7071
28.8182	26.3733
28.8274	13.2576
28.8366	50.2195
28.8458	18.4306
28.8551	17.8773
28.8643	-10.3280
28.8735	-8.1102
28.8827	6.4375
28.8920	20.7928
28.9012	9.1216
28.9104	16.2659
28.9196	10.2984
28.9288	50.6518
28.9381	3.8460
28.9473	-41.1494
28.9565	-4.3734
28.9657	13.0098
28.9750	-7.4872
28.9842	19.7081
28.9934	10.4979
29.0026	-3.4874
29.0118	-10.7574
29.0211	29.2700
29.0303	-18.8350
29.0395	14.6267
29.0487	29.1426
29.0580	-12.7275
29.0672	-2.9121
29.0764	-12.6319
29.0856	-3.7135
29.0949	-9.0472
29.1041	4.3037
29.1133	-4.2138
29.1225	12.8882
29.1317	7.4689
29.1410	-16.3581
29.1502	7.8808
29.1594	-2.5313
29.1686	-0.4754
29.1779	-21.0257
29.1871	1.2965
29.1963	19.2255
29.2055	-7.5320
29.2147	-5.5113
29.2240	-2.9426
29.2332	-19.5216
29.2424	18.8354
29.2516	14.9129
29.2609	1.0516
29.2701	18.0783
29.2793	38.9604
29.2885	16.5965
29.2977	-8.3555
29.3070	-5.7066
29.3162	-6.4387
29.3254	28.8558
29.3346	14.5254
29.3439	-7.2523
29.3531	31.8073
29.3623	1.4103
29.3715	19.4044
29.3808	14.5718
29.3900	35.5781
29.3992	-8.9687
29.4084	20.7350
29.4176	13.5989
29.4269	-7.8368
29.4361	-0.4993
29.4453	-12.2507
29.4545	-0.4628
29.4638	4.9461
29.4730	-6.5436
29.4822	38.4652
29.4914	26.0886
29.5006	21.1075
29.5099	-14.9268
29.5191	44.1860
29.5283	16.1856
29.5375	-8.8291
29.5468	-19.2330
29.5560	20.3459
29.5652	-17.2885
29.5744	35.4880
29.5837	41.9153
29.5929	-10.0473
29.6021	5.3225
29.6113	-2.5928
29.6205	-9.7009
29.6298	0.7130
29.6390	27.2781
29.6482	-16.1117
29.6574	-1.4731
29.6667	-42.1518
29.6759	2.3969
29.6851	-2.5833
29.6943	-8.5884
29.7035	-8.6655
29.7128	3.5351
29.7220	-5.0930
29.7312	21.5776
29.7404	-21.4540
29.7497	-12.6710
29.7589	14.1418
29.7681	-20.9196
29.7773	-11.4558
29.7865	6.3617
29.7958	-21.4864
29.8050	19.0813
29.8142	-14.0414
29.8234	-1.6780
29.8327	-12.6684
29.8419	28.2154
29.8511	30.7897
29.8603	-41.8835
29.8696	-0.8882
29.8788	0.4504
29.8880	-15.7245
29.8972	34.4079
29.9064	22.5633
29.9157	-7.1880
29.9249	14.4040
29.9341	3.6152
29.9433	-16.2073
29.9526	-3.7395
29.9618	7.1015
29.9710	7.5938
29.9802	18.6114
29.9894	14.1196
29.9987	37.1947
30.0079	1.0261
30.0171	-8.3606
30.0263	9.8817
30.0356	-17.4770
30.0448	33.8700
30.0540	-9.7177
30.0632	22.3404
30.0725	16.9078
30.0817	-27.0786
30.0909	-11.6910
30.1001	10.5190
30.1093	-12.1156
30.1186	23.6413
30.1278	-2.3084
30.1370	26.2690
30.1462	-1.1829
30.1555	20.7071
30.1647	-2.9119
30.1739	-9.5324
30.1831	-47.4886
30.1923	21.3464
30.2016	8.9970
30.2108	-9.7418
30.2200	-0.1341
30.2292	18.5187
30.2385	7.2806
30.2477	11.2240
30.2569	-1.1481
30.2661	35.0816
30.2754	13.6353
30.2846	19.5277
30.2938	30.6879
30.3030	8.4355
30.3122	0.1217
30.3215	-6.0295
30.3307	10.9320
30.3399	-1.6348
30.3491	-21.6460
30.3584	1.0117
30.3676	23.3165
30.3768	-2.7550
30.3860	-4.8192
30.3952	-31.5617
30.4045	33.3827
30.4137	13.1515
30.4229	9.2617
30.4321	-14.3993
30.4414	16.6682
30.4506	5.0592
30.4598	24.5842
30.4690	-7.4209
30.4782	-6.4998
30.4875	-5.2109
30.4967	15.6112
30.5059	-5.0793
30.5151	15.5775
30.5244	-5.0441
30.5336	14.2375
30.5428	3.7955
30.5520	-8.1571
30.5613	29.4504
30.5705	-17.0193
30.5797	29.2560
30.5889	9.2301
30.5981	12.2086
30.6074	-24.5128
30.6166	4.1098
30.6258	11.5210
30.6350	-23.5436
30.6443	1.8038
30.6535	4.7489
30.6627	-13.5626
30.6719	-4.1441
30.6811	-21.4640
30.6904	5.8873
30.6996	3.0514
30.7088	-5.7570
30.7180	-16.8101
30.7273	6.3793
30.7365	9.7141
30.7457	18.3729
30.7549	18.3078
30.7642	34.7937
30.7734	-18.2039
30.7826	-12.3441
30.7918	-12.3011
30.8010	40.4768
30.8103	21.4069
30.8195	36.3393
30.8287	30.2268
30.8379	30.2240
30.8472	17.6038
30.8564	17.0135
30.8656	26.6348
30.8748	18.0165
30.8840	13.1482
30.8933	12.2777
30.9025	26.0621
30.9117	-9.2097
30.9209	-10.2063
30.9302	12.1626
30.9394	-14.7485
30.9486	25.6220
30.9578	0.3591
30.9670	41.3759
30.9763	39.5649
30.9855	17.9192
30.9947	-24.5251
31.0039	0.1928
31.0132	6.6403
31.0224	1.7412
31.0316	41.3144
31.0408	-16.6205
31.0501	-8.9901
31.0593	-12.0283
31.0685	-3.4741
31.0777	6.9998
31.0869	7.9037
31.0962	8.6721
31.1054	19.8470
31.1146	28.1263
31.1238	-3.2979
31.1331	37.0289
31.1423	29.9444
31.1515	15.0571
31.1607	-3.0471
31.1699	12.7384
31.1792	5.8122
31.1884	20.7714
31.1976	25.3831
31.2068	-2.2522
31.2161	17.1765
31.2253	-24.7272
31.2345	12.6341
31.2437	45.3528
31.2530	2.6010
31.2622	8.1260
31.2714	23.2767
31.2806	47.3662
31.2898	12.0768
31.2991	-25.3988
31.3083	32.3340
31.3175	4.2228
31.3267	-3.0742
31.3360	-18.8859
31.3452	13.6215
31.3544	-5.8571
31.3636	12.7800
31.3728	44.5371
31.3821	4.4446
31.3913	4.4019
31.4005	-14.8286
31.4097	-3.4773
31.4190	37.5548
31.4282	10.0639
31.4374	-0.0016
31.4466	12.9131
31.4559	0.0417
31.4651	-3.7156
31.4743	-12.4463
31.4835	3.1508
31.4927	7.4647
31.5020	-20.8384
31.5112	-3.7347
31.5204	25.5861
31.5296	18.5815
31.5389	24.9688
31.5481	34.8821
31.5573	31.0284
31.5665	-3.4978
31.5757	-15.5602
31.5850	8.8717
31.5942	20.2524
31.6034	44.8998
31.6126	-18.1385
31.6219	10.8353
31.6311	-1.0105
31.6403	-3.2364
31.6495	-3.2012
31.6587	32.9659
31.6680	18.6447
31.6772	21.8644
31.6864	-1.3378
31.6956	47.5709
31.7049	32.6135
31.7141	-8.9170
31.7233	24.3181
31.7325	-4.8934
31.7418	-28.2564
31.7510	5.4729
31.7602	-11.7459
31.7694	9.6929
31.7786	6.6518
31.7879	-14.0938
31.7971	22.6338
31.8063	8.4664
31.8155	5.4016
31.8248	13.3401
31.8340	7.0880
31.8432	-12.5917
31.8524	4.2208
31.8616	1.4848
31.8709	-34.0411
31.8801	3.4118
31.8893	-13.4620
31.8985	3.0926
31.9078	14.7606
31.9170	-27.7490
31.9262	42.6188
31.9354	-11.4224
31.9447	15.9186
31.9539	23.1743
31.9631	45.9006
31.9723	8.7267
31.9815	28.0506
31.9908	0.0335
32.0000	-18.0713
32.0092	-0.5773
32.0184	-26.2272
32.0277	11.1224
32.0369	12.2573
32.0461	18.2719
32.0553	17.2916
32.0645	12.4205
32.0738	-0.1101
32.0830	10.6384
32.0922	1.9446
32.1014	31.7512
32.1107	13.6063
32.1199	-12.7146
32.1291	-12.5385
32.1383	-0.6245
32.1475	-9.5337
32.1568	-42.7219
32.1660	26.5689
32.1752	-2.0647
32.1844	12.5660
32.1937	10.2033
32.2029	30.4567
32.2121	5.8251
32.2213	27.5218
32.2306	-33.2050
32.2398	32.7188
32.2490	-19.2666
32.2582	5.0219
32.2674	19.4063
32.2767	7.2719
32.2859	9.4640
32.2951	-28.8208
32.3043	-8.6367
32.3136	2.2808
32.3228	14.7835
32.3320	12.4220
32.3412	-10.0770
32.3504	28.8429
32.3597	35.4987
32.3689	11.7968
32.3781	20.5082
32.3873	4.7008
32.3966	-21.4036
32.4058	-3.9327
32.4150	-12.4072
32.4242	-18.2485
32.4335	33.9408
32.4427	-9.8720
32.4519	11.0868
32.4611	7.0441
32.4703	-12.9765
32.4796	16.2028
32.4888	-4.0907
32.4980	12.1761
32.5072	9.3516
32.5165	38.4229
32.5257	27.6741
32.5349	29.9569
32.5441	16.2406
32.5533	-20.4965
32.5626	-12.2606
32.5718	13.6832
32.5810	12.1769
32.5902	-10.8707
32.5995	50.9083
32.6087	-8.6828
32.6179	35.8872
32.6271	34.3315
32.6363	3.2216
32.6456	19.1802
32.6548	-12.8633
32.6640	18.5912
32.6732	6.9777
32.6825	-28.3661
32.6917	8.3589
32.7009	23.4922
32.7101	11.9555
32.7194	-28.2542
32.7286	27.8096
32.7378	-21.3142
32.7470	26.8387
32.7562	30.9733
32.7655	39.5910
32.7747	-6.1598
32.7839	-5.5450
32.7931	21.6692
32.8024	-8.4424
32.8116	18.0379
32.8208	-7.3922
32.8300	-14.8502
32.8392	6.6231
32.8485	35.7403
32.8577	36.4984
32.8669	-4.4897
32.8761	15.5552
32.8854	56.2768
32.8946	27.3868
32.9038	5.5720
32.9130	9.6600
32.9223	34.8487
32.9315	12.2384
32.9407	20.2261
32.9499	7.9662
32.9591	30.1523
32.9684	-12.7665
32.9776	10.8303
32.9868	-9.9138
32.9960	13.2841
33.0053	15.4120
33.0145	-11.5352
33.0237	16.0416
33.0329	19.7949
33.0421	8.3349
33.0514	12.7460
33.0606	-11.9444
33.0698	10.6700
33.0790	17.6431
33.0883	-37.8453
33.0975	6.7346
33.1067	-5.6010
33.1159	-12.3897
33.1252	2.4945
33.1344	9.3240
33.1436	-12.6263
33.1528	-12.6269
33.1620	-5.3918
33.1713	8.4860
33.1805	-18.2834
33.1897	0.6311
33.1989	-19.5784
33.2082	36.6611
33.2174	12.0944
33.2266	14.7319
33.2358	19.5531
33.2450	8.3550
33.2543	9.3962
33.2635	8.3025
33.2727	-7.2089
33.2819	-21.8944
33.2912	21.1861
33.3004	53.7868
33.3096	1.1798
33.3188	37.3788
33.3280	-4.4113
33.3373	-17.4862
33.3465	30.4918
33.3557	16.5102
33.3649	21.2648
33.3742	3.1362
33.3834	-0.3216
33.3926	30.5928
33.4018	-10.4122
33.4111	-16.0355
33.4203	10.6493
33.4295	4.4561
33.4387	-2.8676
33.4479	-4.5428
33.4572	2.9132
33.4664	0.0406
33.4756	8.2126
33.4848	11.8967
33.4941	23.0451
33.5033	-24.9079
33.5125	13.0080
33.5217	17.4236
33.5309	-31.2762
33.5402	29.7635
33.5494	20.7316
33.5586	-6.7264
33.5678	-0.2036
33.5771	-10.0182
33.5863	-9.8222
33.5955	8.0752
33.6047	25.9528
33.6140	-5.8061
33.6232	23.1858
33.6324	-8.1999
33.6416	2.2782
33.6508	17.8404
33.6601	8.4755
33.6693	-14.4822
33.6785	-9.1174
33.6877	1.5608
33.6970	8.2028
33.7062	12.0290
33.7154	-9.5371
33.7246	11.5198
33.7338	-7.5536
33.7431	12.6627
33.7523	-4.3667
33.7615	-21.9408
33.7707	32.9884
33.7800	21.2150
33.7892	1.8927
33.7984	16.6410
33.8076	-9.4079
33.8168	17.0622
33.8261	14.0785
33.8353	31.7619
33.8445	-0.8567
33.8537	14.7894
33.8630	-4.8103
33.8722	14.9700
33.8814	35.1551
33.8906	32.0099
33.8999	1.2177
33.9091	-19.4114
33.9183	18.5165
33.9275	46.2281
33.9367	0.1382
33.9460	8.2704
33.9552	-12.8560
33.9644	4.9347
33.9736	24.2898
33.9829	-22.6640
33.9921	3.0218
34.0013	-10.9723
34.0105	-10.1635
34.0197	14.3919
34.0290	22.4307
34.0382	25.0265
34.0474	3.5325
34.0566	15.1334
34.0659	7.4877
34.0751	34.7917
34.0843	8.4555
34.0935	-12.6679
34.1028	-9.0500
34.1120	11.2339
34.1212	25.5966
34.1304	-12.8895
34.1396	11.9310
34.1489	-19.3256
34.1581	-2.2978
34.1673	4.2908
34.1765	26.0019
34.1858	-6.6956
34.1950	33.5307
34.2042	-7.4780
34.2134	15.3320
34.2226	-0.1632
34.2319	16.1501
34.2411	4.8241
34.2503	-9.3752
34.2595	0.9802
34.2688	-5.8799
34.2780	8.6475
34.2872	-17.6924
34.2964	13.6728
34.3057	6.3690
34.3149	-24.1858
34.3241	-5.8225
34.3333	-18.7894
34.3425	31.3191
34.3518	9.4798
34.3610	-16.9266
34.3702	15.4748
34.3794	-3.1584
34.3887	-4.8420
34.3979	33.0643
34.4071	9.9206
34.4163	-28.6173
34.4255	5.0849
34.4348	21.9205
34.4440	-39.6792
34.4532	19.5268
34.4624	-14.5138
34.4717	5.1246
34.4809	-16.3347
34.4901	-4.0820
34.4993	24.0123
34.5085	1.8938
34.5178	8.2817
34.5270	46.4842
34.5362	-22.7232
34.5454	9.2103
34.5547	-47.7437
34.5639	-8.4297
34.5731	-7.8003
34.5823	14.2804
34.5916	20.0826
34.6008	30.9611
34.6100	7.9288
34.6192	-17.6341
34.6284	-6.5776
34.6377	8.5797
34.6469	-8.9010
34.6561	7.6986
34.6653	2.6974
34.6746	23.6715
34.6838	56.1283
34.6930	27.8740
34.7022	-11.6787
34.7114	-33.6319
34.7207	42.1839
34.7299	8.2255
34.7391	-9.8876
34.7483	17.4878
34.7576	7.6780
34.7668	42.3566
34.7760	41.1056
34.7852	30.5242
34.7945	19.1279
34.8037	-17.4745
34.8129	-18.0308
34.8221	16.5208
34.8313	28.8962
34.8406	30.0783
34.8498	-13.8379
34.8590	17.6190
34.8682	36.6151
34.8775	45.7224
34.8867	5.5097
34.8959	13.1358
34.9051	8.8455
34.9143	-13.8081
34.9236	10.4904
34.9328	54.9559
34.9420	25.1942
34.9512	33.1252
34.9605	50.0697
34.9697	1.9472
34.9789	12.9253
34.9881	-2.8180
34.9973	-3.2404
35.0066	19.4541
35.0158	28.8200
35.0250	21.1712
35.0342	20.0788
35.0435	-6.5032
35.0527	16.8190
35.0619	-25.5966
35.0711	37.6852
35.0804	3.5587
35.0896	-12.0841
35.0988	-2.9810
35.1080	-8.9922
35.1172	-5.1969
35.1265	-15.3159
35.1357	12.6446
35.1449	-0.3494
35.1541	-47.1108
35.1634	24.3533
35.1726	-4.8832
35.1818	0.5589
35.1910	-9.8697
35.2002	27.7802
35.2095	30.2029
35.2187	16.7597
35.2279	-7.5592
35.2371	1.2619
35.2464	-16.0369
35.2556	14.9955
35.2648	6.0281
35.2740	-7.8952
35.2833	-11.4139
35.2925	-17.7484
35.3017	38.9346
35.3109	11.4083
35.3201	24.9494
35.3294	-1.0663
35.3386	6.3341
35.3478	12.5258
35.3570	18.3404
35.3663	17.4223
35.3755	18.4654
35.3847	3.4911
35.3939	-12.1664
35.4031	4.5332
35.4124	8.4100
35.4216	-14.4167
35.4308	-0.0134
35.4400	-6.0388
35.4493	7.7772
35.4585	3.2969
35.4677	-0.5204
35.4769	45.2571
35.4862	10.4335
35.4954	-7.4191
35.5046	-8.4011
35.5138	-3.4223
35.5230	-21.0862
35.5323	12.3768
35.5415	4.8915
35.5507	14.1887
35.5599	7.8320
35.5692	13.1907
35.5784	-10.0352
35.5876	-6.5873
35.5968	-30.9079
35.6060	7.1287
35.6153	39.3539
35.6245	7.6475
35.6337	5.2015
35.6429	12.9043
35.6522	32.7576
35.6614	16.9304
35.6706	0.3200
35.6798	-3.3849
35.6890	4.8800
35.6983	-6.7257
35.7075	28.0538
35.7167	7.9258
35.7259	-2.6185
35.7352	-3.8193
35.7444	13.6768
35.7536	-4.4235
35.7628	23.3713
35.7721	-4.3750
35.7813	-21.9817
35.7905	3.2983
35.7997	23.2596
35.8089	12.8395
35.8182	40.3799
35.8274	26.1615
35.8366	-4.9081
35.8458	17.3792
35.8551	24.0189
35.8643	12.3638
35.8735	-4.8734
35.8827	19.4762
35.8919	19.7429
35.9012	19.2154
35.9104	44.9275
35.9196	-1.6248
35.9288	9.3299
35.9381	0.3362
35.9473	24.7993
35.9565	19.0455
35.9657	15.0522
35.9750	1.9393
35.9842	2.1782
35.9934	24.5085
36.0026	14.6157
36.0118	24.6327
36.0211	-7.8991
36.0303	32.8103
36.0395	-4.9091
36.0487	0.9472
36.0580	1.4568
36.0672	20.9851
36.0764	-14.6156
36.0856	-2.3552
36.0948	-1.6001
36.1041	3.5846
36.1133	-6.0380
36.1225	-2.6749
36.1317	-15.6809
36.1410	7.2457
36.1502	3.3861
36.1594	9.7104
36.1686	21.5952
36.1778	-5.1925
36.1871	-14.9104
36.1963	19.1280
36.2055	22.8177
36.2147	19.1754
36.2240	-8.0269
36.2332	-7.9515
36.2424	-10.0175
36.2516	-3.3779
36.2609	-8.4344
36.2701	-4.0387
36.2793	-0.1412
36.2885	-13.5155
36.2977	4.5247
36.3070	26.3608
36.3162	-18.4233
36.3254	13.7566
36.3346	-12.0664
36.3439	4.7500
36.3531	30.3909
36.3623	27.1250
36.3715	-6.5179
36.3807	12.2104
36.3900	0.4790
36.3992	-1.0135
36.4084	9.2331
36.4176	6.3386
36.4269	-7.9703
36.4361	6.2859
36.4453	-0.4436
36.4545	15.2788
36.4638	14.4825
36.4730	21.1344
36.4822	-5.0838
36.4914	-22.2792
36.5006	17.4055
36.5099	-12.0480
36.5191	-8.7880
36.5283	-6.5138
36.5375	-2.3213
36.5468	5.3483
36.5560	-35.3397
36.5652	11.7436
36.5744	3.1529
36.5836	4.4485
36.5929	-22.7096
36.6021	24.0002
36.6113	-4.6878
36.6205	8.0859
36.6298	21.9291
36.6390	6.1464
36.6482	-9.4643
36.6574	20.4191
36.6667	11.5396
36.6759	6.3405
36.6851	-13.0257
36.6943	-7.1532
36.7035	3.8557
36.7128	0.0718
36.7220	51.4021
36.7312	-7.1390
36.7404	-0.5456
36.7497	24.4973
36.7589	28.8398
36.7681	-0.9976
36.7773	-19.5406
36.7865	21.0163
36.7958	15.6240
36.8050	-7.2686
36.8142	-9.3974
36.8234	32.2082
36.8327	5.9419
36.8419	14.4730
36.8511	-0.3981
36.8603	22.2127
36.8695	-5.3365
36.8788	16.4332
36.8880	-0.6846
36.8972	14.8651
36.9064	11.2451
36.9157	-0.1432
36.9249	33.1691
36.9341	-4.6351
36.9433	-1.2943
36.9526	-12.2264
36.9618	1.7489
36.9710	8.1661
36.9802	-5.0678
36.9894	8.5502
36.9987	11.0091
37.0079	5.9403
37.0171	-9.1074
37.0263	3.8129
37.0356	5.6401
37.0448	10.9635
37.0540	-41.0628
37.0632	3.9502
37.0724	-14.0901
37.0817	18.0385
37.0909	12.4906
37.1001	2.9469
37.1093	4.6662
37.1186	-9.6235
37.1278	-13.4356
37.1370	11.4749
37.1462	-6.6898
37.1555	-27.3676
37.1647	19.9289
37.1739	3.4372
37.1831	10.7203
37.1923	20.2560
37.2016	22.8745
37.2108	8.7264
37.2200	13.0368
37.2292	-15.3135
37.2385	4.9199
37.2477	21.6031
37.2569	27.0567
37.2661	14.1355
37.2753	23.7334
37.2846	76.4195
37.2938	103.9212
37.3030	144.4367
37.3122	211.6136
37.3215	271.7609
37.3307	274.2643
37.3399	227.3987
37.3491	152.0887
37.3583	111.0743
37.3676	49.3511
37.3768	20.8593
37.3860	27.6463
37.3952	24.6960
37.4045	18.7399
37.4137	10.0370
37.4229	-1.2819
37.4321	-20.1466
37.4414	12.8244
37.4506	11.4760
37.4598	28.6427
37.4690	14.0151
37.4782	12.9871
37.4875	15.9005
37.4967	11.8380
37.5059	23.0745
37.5151	-7.7759
37.5244	11.8912
37.5336	23.1107
37.5428	30.2604
37.5520	50.2797
37.5612	0.8049
37.5705	-6.0807
37.5797	-8.2685
37.5889	-22.4591
37.5981	7.9768
37.6074	19.4745
37.6166	20.7147
37.6258	-7.4271
37.6350	36.8339
37.6443	17.7606
37.6535	22.2479
37.6627	29.7604
37.6719	18.7529
37.6811	-8.7763
37.6904	3.5717
37.6996	-13.8979
37.7088	0.6140
37.7180	15.2637
37.7273	7.7850
37.7365	42.1935
37.7457	12.5370
37.7549	19.9639
37.7641	-0.4693
37.7734	6.7689
37.7826	17.0445
37.7918	7.7779
37.8010	41.9445
37.8103	22.4604
37.8195	48.1366
37.8287	32.6315
37.8379	26.3875
37.8472	12.8589
37.8564	22.4249
37.8656	24.1665
37.8748	6.6459
37.8840	-0.7022
37.8933	7.0619
37.9025	-5.4059
37.9117	2.1804
37.9209	13.9937
37.9302	-1.0609
37.9394	30.9839
37.9486	20.0404
37.9578	18.1231
37.9670	19.3030
37.9763	18.4640
37.9855	18.4339
37.9947	7.4494
38.0039	-0.8626
38.0132	4.2605
38.0224	2.2349
38.0316	15.7247
38.0408	-6.8130
38.0500	-12.3464
38.0593	6.2702
38.0685	-10.7857
38.0777	6.2016
38.0869	25.4447
38.0962	-13.3742
38.1054	-8.3640
38.1146	10.4742
38.1238	13.1036
38.1331	18.1612
38.1423	0.3978
38.1515	17.0399
38.1607	20.4007
38.1699	41.9719
38.1792	-7.7407
38.1884	18.2613
38.1976	13.7428
38.2068	-6.0543
38.2161	29.1298
38.2253	-0.2490
38.2345	23.6683
38.2437	-0.5345
38.2529	29.9994
38.2622	31.3490
38.2714	-2.2925
38.2806	23.8154
38.2898	30.0520
38.2991	3.3511
38.3083	26.2040
38.3175	30.0375
38.3267	5.3902
38.3360	17.8680
38.3452	5.4178
38.3544	17.4470
38.3636	-6.6143
38.3728	-12.7406
38.3821	7.3398
38.3913	-1.7477
38.4005	11.7060
38.4097	-18.0366
38.4190	-8.8870
38.4282	-8.3195
38.4374	-11.5897
38.4466	11.9815
38.4558	-29.0325
38.4651	1.7218
38.4743	-2.4340
38.4835	1.5552
38.4927	-3.7611
38.5020	-12.7006
38.5112	4.4562
38.5204	5.3183
38.5296	-26.4293
38.5388	1.6934
38.5481	-0.3478
38.5573	-13.7352
38.5665	7.3240
38.5757	20.0105
38.5850	21.3416
38.5942	-15.3109
38.6034	-4.4124
38.6126	-9.0637
38.6219	-3.1816
38.6311	19.1067
38.6403	1.6636
38.6495	-4.9075
38.6587	-2.9017
38.6680	18.9696
38.6772	-15.4270
38.6864	-8.3580
38.6956	5.3208
38.7049	-0.7419
38.7141	-12.4566
38.7233	2.8514
38.7325	-5.8690
38.7417	22.2775
38.7510	-7.1580
38.7602	-9.5426
38.7694	27.0253
38.7786	-2.9335
38.7879	-6.8976
38.7971	24.5635
38.8063	2.2181
38.8155	-4.5182
38.8248	-13.3311
38.8340	4.4928
38.8432	14.9517
38.8524	1.6924
38.8616	21.2974
38.8709	18.7983
38.8801	-14.2229
38.8893	4.7166
38.8985	1.4380
38.9078	-8.6139
38.9170	-6.2145
38.9262	17.7930
38.9354	25.5885
38.9446	3.7066
38.9539	18.2207
38.9631	18.0900
38.9723	12.6468
38.9815	5.9484
38.9908	0.9641
39.0000	21.4906
39.0092	10.1592
39.0184	2.6989
39.0277	38.3330
39.0369	34.5859
39.0461	-8.3730
39.0553	-8.5075
39.0645	-4.1456
39.0738	26.8952
39.0830	11.3573
39.0922	3.5751
39.1014	-0.4049
39.1107	-10.8588
39.1199	3.4050
39.1291	19.1151
39.1383	14.9885
39.1475	25.4390
39.1568	5.8381
39.1660	16.9520
39.1752	-9.7612
39.1844	-0.0770
39.1937	3.6857
39.2029	-26.0378
39.2121	-2.8901
39.2213	24.3849
39.2305	25.7663
39.2398	7.0704
39.2490	7.3669
39.2582	11.1107
39.2674	-8.3345
39.2767	-5.2477
39.2859	-0.0310
39.2951	-0.6872
39.3043	-3.2004
39.3136	-8.6702
39.3228	-19.1071
39.3320	23.9384
39.3412	10.3816
39.3504	12.5089
39.3597	17.1089
39.3689	0.6987
39.3781	-7.0669
39.3873	4.9995
39.3966	4.7231
39.4058	19.3753
39.4150	-12.2685
39.4242	5.9601
39.4334	-1.4051
39.4427	14.2688
39.4519	44.6397
39.4611	1.3653
39.4703	-8.5317
39.4796	-3.0677
39.4888	-4.7049
39.4980	-0.2410
39.5072	14.1611
39.5165	13.9834
39.5257	21.2158
39.5349	10.0646
39.5441	15.9063
39.5533	19.9442
39.5626	7.8300
39.5718	2.7534
39.5810	2.9501
39.5902	24.8482
39.5995	11.8882
39.6087	10.0834
39.6179	21.3702
39.6271	21.2430
39.6363	1.7045
39.6456	-9.1500
39.6548	-1.9329
39.6640	31.4767
39.6732	30.6837
39.6825	2.7428
39.6917	17.1669
39.7009	-17.4260
39.7101	28.1559
39.7193	8.3576
39.7286	38.9872
39.7378	11.5407
39.7470	19.7085
39.7562	5.3919
39.7655	14.3531
39.7747	0.2036
39.7839	-6.6317
39.7931	2.2772
39.8024	-10.9337
39.8116	6.7786
39.8208	1.0149
39.8300	16.3118
39.8392	-30.0917
39.8485	-8.5395
39.8577	19.0757
39.8669	17.4740
39.8761	14.3307
39.8854	6.7815
39.8946	26.7889
39.9038	34.5474
39.9130	-9.9502
39.9222	-27.8413
39.9315	10.1851
39.9407	-0.7701
39.9499	-1.7364
39.9591	14.1613
39.9684	3.2043
39.9776	-6.3127
39.9868	7.3317
39.9960	-28.3941
40.0053	1.0257
40.0145	21.9745
40.0237	20.1768
40.0329	12.5833
40.0421	-11.8546
40.0514	10.8428
40.0606	28.5261
40.0698	5.7904
40.0790	-0.0869
40.0883	20.9605
40.0975	12.2914
40.1067	11.6351
40.1159	0.3992
40.1251	16.1156
40.1344	-6.0643
40.1436	-8.7520
40.1528	-4.9269
40.1620	-5.1567
40.1713	29.7447
40.1805	15.9417
40.1897	-21.5667
40.1989	15.7877
40.2082	-4.0237
40.2174	4.2396
40.2266	24.0772
40.2358	16.1455
40.2450	12.7726
40.2543	14.7733
40.2635	14.5950
40.2727	1.2795
40.2819	-5.1408
40.2912	-4.4269
40.3004	-9.0872
40.3096	4.2777
40.3188	-27.6471
40.3280	7.2440
40.3373	-10.5552
40.3465	44.8716
40.3557	15.0063
40.3649	10.5584
40.3742	14.4321
40.3834	1.1588
40.3926	14.8067
40.4018	8.4108
40.4110	7.4980
40.4203	-8.5098
40.4295	-8.2314
40.4387	19.3431
40.4479	-13.3217
40.4572	4.5168
40.4664	4.2890
40.4756	25.7921
40.4848	-8.7349
40.4941	-0.0437
40.5033	4.9387
40.5125	11.8739
40.5217	15.8193
40.5309	6.2867
40.5402	8.8854
40.5494	2.5079
40.5586	27.4585
40.5678	23.4835
40.5771	23.6844
40.5863	18.9521
40.5955	-5.5898
40.6047	-5.2407
40.6139	-8.2301
40.6232	-0.3480
40.6324	16.0772
40.6416	15.4370
40.6508	6.8868
40.6601	22.7760
40.6693	-2.5084
40.6785	6.9629
40.6877	5.3113
40.6970	31.7340
40.7062	18.0536
40.7154	5.5675
40.7246	-16.2281
40.7338	0.2526
40.7431	13.7800
40.7523	4.2374
40.7615	13.9974
40.7707	8.4325
40.7800	14.0749
40.7892	3.8495
40.7984	13.6697
40.8076	10.4061
40.8168	-7.8706
40.8261	-7.8518
40.8353	3.9467
40.8445	8.2534
40.8537	16.8605
40.8630	-5.4734
40.8722	23.5390
40.8814	-3.9361
40.8906	-7.7520
40.8998	2.2478
40.9091	6.9722
40.9183	-23.5903
40.9275	-5.9446
40.9367	-0.3478
40.9460	15.8000
40.9552	-13.2308
40.9644	13.7276
40.9736	24.6890
40.9829	0.3360
40.9921	-8.3490
41.0013	-2.2824
41.0105	-2.0281
41.0197	-0.1967
41.0290	7.3622
41.0382	-1.4641
41.0474	-0.3081
41.0566	-2.5664
41.0659	11.6145
41.0751	16.7587
41.0843	-10.2293
41.0935	-5.6180
41.1027	-14.7899
41.1120	6.3566
41.1212	6.0451
41.1304	-23.0263
41.1396	22.2483
41.1489	8.9242
41.1581	36.7910
41.1673	18.3807
41.1765	48.2493
41.1858	24.0488
41.1950	21.0275
41.2042	-2.1527
41.2134	25.1284
41.2226	-15.0152
41.2319	-8.2049
41.2411	13.9131
41.2503	16.8778
41.2595	0.1137
41.2688	7.4160
41.2780	7.3526
41.2872	-3.5913
41.2964	7.1684
41.3056	27.3367
41.3149	27.4361
41.3241	0.9933
41.3333	6.4966
41.3425	19.0212
41.3518	-1.1676
41.3610	32.0156
41.3702	0.5611
41.3794	21.7238
41.3887	30.2882
41.3979	3.8452
41.4071	17.7979
41.4163	-3.2462
41.4255	5.8262
41.4348	-7.9700
41.4440	-14.0588
41.4532	17.2953
41.4624	18.2182
41.4717	18.0712
41.4809	28.3512
41.4901	14.7369
41.4993	7.3838
41.5085	-12.7793
41.5178	25.0938
41.5270	5.8656
41.5362	0.4350
41.5454	23.5523
41.5547	26.3958
41.5639	33.7639
41.5731	-24.0668
41.5823	-8.1811
41.5915	10.3130
41.6008	-1.0339
41.6100	24.9741
41.6192	12.8926
41.6284	17.2770
41.6377	23.3584
41.6469	3.3166
41.6561	25.9944
41.6653	11.1297
41.6746	15.6030
41.6838	6.4825
41.6930	-3.3608
41.7022	21.5694
41.7114	15.5818
41.7207	-7.2262
41.7299	5.0751
41.7391	-6.4540
41.7483	-6.4924
41.7576	-5.9801
41.7668	8.6422
41.7760	32.1172
41.7852	11.7773
41.7944	26.6849
41.8037	27.8355
41.8129	-1.6851
41.8221	7.5767
41.8313	19.7923
41.8406	10.4708
41.8498	23.8448
41.8590	12.7242
41.8682	10.6950
41.8775	-5.7684
41.8867	6.0599
41.8959	-3.7933
41.9051	-3.0562
41.9143	-5.3754
41.9236	-7.5316
41.9328	-15.1494
41.9420	8.3841
41.9512	-3.1427
41.9605	18.3567
41.9697	-8.0904
41.9789	-0.9724
41.9881	13.3722
41.9973	-1.4996
42.0066	17.3509
42.0158	7.8473
42.0250	13.6242
42.0342	-9.5211
42.0435	-12.3968
42.0527	12.9050
42.0619	-6.3579
42.0711	-15.0933
42.0803	5.4035
42.0896	12.7377
42.0988	27.1650
42.1080	13.2425
42.1172	-10.6133
42.1265	26.6673
42.1357	31.0823
42.1449	5.0534
42.1541	7.5643
42.1634	34.3220
42.1726	10.8248
42.1818	40.7299
42.1910	10.2295
42.2002	14.8907
42.2095	0.8955
42.2187	27.8427
42.2279	16.0740
42.2371	0.7797
42.2464	-1.9740
42.2556	11.3384
42.2648	11.0625
42.2740	-9.3486
42.2832	-1.9429
42.2925	5.9673
42.3017	6.9982
42.3109	2.2355
42.3201	2.8330
42.3294	20.5980
42.3386	20.5053
42.3478	8.9205
42.3570	-3.0463
42.3663	0.3733
42.3755	-1.8471
42.3847	19.5015
42.3939	-23.0368
42.4031	10.8747
42.4124	9.9110
42.4216	-17.9515
42.4308	-2.6616
42.4400	17.3215
42.4493	-43.4289
42.4585	-3.0793
42.4677	2.5452
42.4769	20.5678
42.4861	-25.9472
42.4954	-0.4966
42.5046	-14.5090
42.5138	34.7919
42.5230	1.2142
42.5323	-2.4508
42.5415	12.0457
42.5507	5.6160
42.5599	5.9298
42.5691	-14.1456
42.5784	-6.3197
42.5876	1.1105
42.5968	4.5986
42.6060	0.1530
42.6153	-1.3944
42.6245	20.0575
42.6337	16.0270
42.6429	-7.3194
42.6522	15.4214
42.6614	9.9781
42.6706	-8.3722
42.6798	-11.4030
42.6890	38.4597
42.6983	-9.0491
42.7075	-8.0083
42.7167	26.4478
42.7259	33.9894
42.7352	2.7825
42.7444	16.1688
42.7536	15.5594
42.7628	26.6089
42.7720	11.5597
42.7813	-3.3614
42.7905	1.3665
42.7997	6.1778
42.8089	14.1638
42.8182	-4.8359
42.8274	22.6448
42.8366	8.3943
42.8458	6.6818
42.8551	22.3760
42.8643	-6.2538
42.8735	8.9416
42.8827	19.4721
42.8919	-7.2340
42.9012	-6.4801
42.9104	5.3271
42.9196	-12.1484
42.9288	-4.8682
42.9381	18.7578
42.9473	17.4384
42.9565	16.1996
42.9657	-13.0692
42.9749	21.8627
42.9842	4.7892
42.9934	-0.5747
43.0026	-12.8229
43.0118	32.2059
43.0211	-7.6099
43.0303	18.2161
43.0395	10.5816
43.0487	6.4028
43.0580	-6.8507
43.0672	14.9278
43.0764	13.7828
43.0856	13.9235
43.0948	22.6125
43.1041	13.9300
43.1133	2.1559
43.1225	-7.9717
43.1317	-3.2969
43.1410	18.0677
43.1502	10.0431
43.1594	14.3941
43.1686	31.6738
43.1778	42.8568
43.1871	12.1917
43.1963	-3.7157
43.2055	25.4344
43.2147	13.5210
43.2240	2.6714
43.2332	25.4548
43.2424	-18.3286
43.2516	25.3687
43.2608	15.0574
43.2701	40.3190
43.2793	9.6623
43.2885	-19.9787
43.2977	6.7741
43.3070	14.9559
43.3162	-13.4081
43.3254	34.8030
43.3346	51.6971
43.3439	54.8910
43.3531	95.5498
43.3623	130.2379
43.3715	164.7545
43.3807	167.6178
43.3900	127.4776
43.3992	62.0304
43.4084	44.3496
43.4176	-2.4313
43.4269	21.9709
43.4361	6.4061
43.4453	-8.6048
43.4545	-18.0962
43.4637	23.2202
43.4730	-6.7034
43.4822	-0.7682
43.4914	9.0122
43.5006	-2.6780
43.5099	-7.4781
43.5191	0.7492
43.5283	4.3553
43.5375	-10.0743
43.5468	7.8313
43.5560	13.6487
43.5652	8.8036
43.5744	8.0526
43.5836	10.3098
43.5929	23.9525
43.6021	3.0163
43.6113	-12.5796
43.6205	3.0270
43.6298	9.5077
43.6390	25.0416
43.6482	7.5365
43.6574	-7.5440
43.6666	-19.4705
43.6759	25.5382
43.6851	10.9958
43.6943	16.0748
43.7035	1.0058
43.7128	12.2202
43.7220	32.0557
43.7312	37.8797
43.7404	-7.5823
43.7496	42.5128
43.7589	-3.1393
43.7681	-1.7428
43.7773	28.7066
43.7865	34.3346
43.7958	5.6882
43.8050	26.6561
43.8142	22.7203
43.8234	21.2079
43.8327	11.9136
43.8419	-4.3139
43.8511	19.5445
43.8603	19.7458
43.8695	-1.1315
43.8788	4.8942
43.8880	23.4930
43.8972	14.7255
43.9064	6.2908
43.9157	0.7400
43.9249	27.5237
43.9341	18.0518
43.9433	31.8364
43.9525	5.1242
43.9618	21.7742
43.9710	-14.7002
43.9802	22.1042
43.9894	7.0063
43.9987	7.6203
44.0079	-4.8705
44.0171	-8.0112
44.0263	-3.5185
44.0356	23.3562
44.0448	17.9384
44.0540	-1.6883
44.0632	-8.4346
44.0724	31.9989
44.0817	0.8276
44.0909	0.3550
44.1001	12.1127
44.1093	19.9360
44.1186	-9.1756
44.1278	-1.0821
44.1370	5.0929
44.1462	11.5372
44.1554	19.2911
44.1647	-4.2007
44.1739	17.2889
44.1831	-4.7789
44.1923	11.0252
44.2016	16.8409
44.2108	-4.0798
44.2200	-8.2227
44.2292	0.9523
44.2385	-0.3030
44.2477	11.6977
44.2569	15.5253
44.2661	-2.6070
44.2753	15.3515
44.2846	-15.2950
44.2938	10.6490
44.3030	16.6125
44.3122	-6.9138
44.3215	-10.5492
44.3307	7.8861
44.3399	9.4565
44.3491	0.7332
44.3583	2.6584
44.3676	5.4441
44.3768	-6.1640
44.3860	-2.5888
44.3952	13.3002
44.4045	15.6918
44.4137	10.8693
44.4229	-0.4581
44.4321	-13.1778
44.4413	24.6900
44.4506	5.7602
44.4598	-0.8590
44.4690	-8.1791
44.4782	-10.5869
44.4875	19.0997
44.4967	16.5040
44.5059	1.2695
44.5151	19.4144
44.5244	-8.4200
44.5336	8.6106
44.5428	9.6037
44.5520	13.2353
44.5612	24.3874
44.5705	1.8065
44.5797	-0.2561
44.5889	-6.9513
44.5981	22.2534
44.6074	0.8738
44.6166	-2.7340
44.6258	-2.1671
44.6350	-13.9713
44.6442	2.5029
44.6535	9.4942
44.6627	-4.9649
44.6719	27.6470
44.6811	-2.9229
44.6904	21.0271
44.6996	22.9606
44.7088	5.7391
44.7180	-2.2117
44.7273	11.7904
44.7365	18.8746
44.7457	18.1005
44.7549	10.8302
44.7641	14.6107
44.7734	-8.4851
44.7826	-8.1005
44.7918	-1.0574
44.8010	17.5482
44.8103	5.6601
44.8195	-2.9749
44.8287	6.2627
44.8379	-12.4723
44.8471	12.1259
44.8564	-6.9850
44.8656	21.9905
44.8748	-7.3050
44.8840	-10.6444
44.8933	7.3808
44.9025	10.6497
44.9117	8.9746
44.9209	38.1148
44.9301	-17.1538
44.9394	-4.2186
44.9486	14.3595
44.9578	-9.6918
44.9670	7.0591
44.9763	3.3348
44.9855	5.8806
44.9947	1.9539
45.0039	0.3661
45.0132	6.5879
45.0224	-3.2196
45.0316	-13.5991
45.0408	4.2486
45.0500	-27.2508
45.0593	5.5341
45.0685	15.4180
45.0777	-5.6253
45.0869	-22.8899
45.0962	13.9807
45.1054	6.0751
45.1146	7.1860
45.1238	-12.0941
45.1330	-6.6227
45.1423	9.4608
45.1515	-0.9852
45.1607	-3.7166
45.1699	0.9976
45.1792	3.1308
45.1884	-16.5548
45.1976	-2.3856
45.2068	-28.0444
45.2161	8.7348
45.2253	4.5097
45.2345	-7.0235
45.2437	-14.2473
45.2529	9.6368
45.2622	9.1933
45.2714	-8.9112
45.2806	-3.2334
45.2898	0.8540
45.2991	-10.9472
45.3083	19.3180
45.3175	-5.6883
45.3267	10.1397
45.3359	15.3145
45.3452	-13.2318
45.3544	8.1217
45.3636	5.0222
45.3728	14.7252
45.3821	7.9264
45.3913	-18.4998
45.4005	-3.2894
45.4097	-0.3270
45.4190	33.5235
45.4282	-14.5029
45.4374	2.2340
45.4466	-0.3866
45.4558	-3.1647
45.4651	6.0453
45.4743	10.5632
45.4835	-2.1023
45.4927	25.5339
45.5020	-6.6662
45.5112	-7.5484
45.5204	-1.3093
45.5296	7.6571
45.5388	1.1515
45.5481	3.9525
45.5573	9.9969
45.5665	6.8665
45.5757	11.6217
45.5850	11.4366
45.5942	-1.2512
45.6034	5.5189
45.6126	12.1729
45.6218	-19.4518
45.6311	-2.2628
45.6403	0.0397
45.6495	-2.1162
45.6587	-10.6096
45.6680	3.0617
45.6772	13.0399
45.6864	11.9063
45.6956	11.1289
45.7049	-3.8773
45.7141	-2.2071
45.7233	3.8996
45.7325	-5.6189
45.7417	3.2323
45.7510	-5.2300
45.7602	10.3275
45.7694	10.0344
45.7786	10.7540
45.7879	-17.1544
45.7971	9.4229
45.8063	9.2922
45.8155	12.7599
45.8247	5.3562
45.8340	-4.4722
45.8432	-2.9787
45.8524	30.7427
45.8616	10.6326
45.8709	-5.8587
45.8801	-4.7913
45.8893	-11.8284
45.8985	13.5950
45.9078	9.4043
45.9170	-4.7594
45.9262	7.0315
45.9354	28.1002
45.9446	13.1052
45.9539	11.1034
45.9631	8.6552
45.9723	6.7343
45.9815	3.9922
45.9908	-8.2621
46.0000	-4.1153
46.0092	15.8432
46.0184	-12.2548
46.0276	26.8920
46.0369	-0.4945
46.0461	8.4398
46.0553	20.0201
46.0645	-2.9449
46.0738	-21.1525
46.0830	11.1284
46.0922	6.9381
46.1014	6.7922
46.1106	3.5360
46.1199	12.3914
46.1291	20.0197
46.1383	3.9369
46.1475	-7.5538
46.1568	-4.9500
46.1660	16.2386
46.1752	11.1922
46.1844	7.8753
46.1937	0.0891
46.2029	4.2551
46.2121	20.0769
46.2213	1.7229
46.2305	-11.3599
46.2398	-0.7030
46.2490	-4.3715
46.2582	-4.7921
46.2674	25.6301
46.2767	27.0512
46.2859	24.4810
46.2951	16.1844
46.3043	-7.1735
46.3135	29.9863
46.3228	11.1633
46.3320	1.5385
46.3412	8.5048
46.3504	-11.1048
46.3597	-4.0173
46.3689	23.7855
46.3781	-18.7406
46.3873	15.9790
46.3966	1.5077
46.4058	27.8442
46.4150	-5.5856
46.4242	-0.2871
46.4334	6.2475
46.4427	12.5339
46.4519	14.5679
46.4611	-22.7019
46.4703	35.8334
46.4796	-6.8247
46.4888	14.8988
46.4980	3.5314
46.5072	-7.3261
46.5164	-6.3702
46.5257	3.4983
46.5349	11.0068
46.5441	-7.4484
46.5533	-5.6467
46.5626	-4.3728
46.5718	-0.7306
46.5810	-17.0357
46.5902	1.5750
46.5995	8.9618
46.6087	7.6845
46.6179	-1.1948
46.6271	20.7189
46.6363	-9.9162
46.6456	8.1615
46.6548	13.7874
46.6640	-3.7848
46.6732	12.0742
46.6825	-6.4062
46.6917	-2.2528
46.7009	-7.8764
46.7101	3.0879
46.7193	-10.7169
46.7286	8.7835
46.7378	1.2757
46.7470	18.6390
46.7562	3.9495
46.7655	-17.9922
46.7747	6.3034
46.7839	-4.0797
46.7931	17.2354
46.8023	1.9480
46.8116	21.4484
46.8208	4.2368
46.8300	11.3838
46.8392	-5.1815
46.8485	22.6241
46.8577	2.7999
46.8669	16.2731
46.8761	5.5340
46.8854	6.3752
46.8946	-10.0710
46.9038	18.9438
46.9130	4.5109
46.9222	11.3170
46.9315	19.9725
46.9407	1.4760
46.9499	0.8143
46.9591	3.6829
46.9684	-7.5263
46.9776	-11.2262
46.9868	7.9930
46.9960	11.5682
47.0052	21.5937
47.0145	-5.2727
47.0237	0.6159
47.0329	-5.5025
47.0421	9.6459
47.0514	-3.9346
47.0606	11.5808
47.0698	7.4703
47.0790	10.4730
47.0883	18.2178
47.0975	19.2474
47.1067	-0.6637
47.1159	-6.7607
47.1251	7.4377
47.1344	6.9234
47.1436	0.2037
47.1528	-9.3349
47.1620	-0.5652
47.1713	-5.1221
47.1805	17.8339
47.1897	-0.2100
47.1989	26.7658
47.2081	-6.5973
47.2174	1.8337
47.2266	5.4189
47.2358	-0.0980
47.2450	8.7403
47.2543	-6.5835
47.2635	3.5245
47.2727	25.5192
47.2819	8.3504
47.2911	-5.9729
47.3004	1.6892
47.3096	-11.8362
47.3188	22.8270
47.3280	-8.5736
47.3373	8.5663
47.3465	9.5261
47.3557	6.0003
47.3649	17.3109
47.3742	2.9020
47.3834	14.8885
47.3926	5.8031
47.4018	-1.6171
47.4110	-7.5880
47.4203	1.3968
47.4295	14.1585
47.4387	6.2688
47.4479	0.5493
47.4572	12.1025
47.4664	9.9767
47.4756	24.4323
47.4848	-1.1337
47.4940	6.7316
47.5033	-23.6868
47.5125	25.5769
47.5217	15.0220
47.5309	-6.4486
47.5402	3.6440
47.5494	13.2154
47.5586	14.4175
47.5678	14.1738
47.5771	-0.0273
47.5863	-0.2146
47.5955	24.2234
47.6047	-9.8968
47.6139	5.4547
47.6232	9.4405
47.6324	25.3913
47.6416	0.6896
47.6508	-12.1044
47.6601	-0.2157
47.6693	-5.1379
47.6785	9.0564
47.6877	-8.3537
47.6969	1.1368
47.7062	25.7474
47.7154	7.6038
47.7246	20.8850
47.7338	32.9979
47.7431	2.4248
47.7523	12.0919
47.7615	3.4561
47.7707	26.7576
47.7800	7.7176
47.7892	29.2691
47.7984	8.9123
47.8076	25.0758
47.8168	-8.9582
47.8261	-8.3785
47.8353	7.8544
47.8445	1.9212
47.8537	18.3374
47.8630	13.9846
47.8722	4.9900
47.8814	-2.0520
47.8906	11.3079
47.8998	-21.2050
47.9091	8.9522
47.9183	3.2542
47.9275	-9.7959
47.9367	-2.8189
47.9460	-8.4180
47.9552	9.0064
47.9644	9.8019
47.9736	5.2211
47.9828	-5.7238
47.9921	-8.1606
48.0013	-8.4216
